Elapsed time,vals
0,2044
1.00E-04,2044
0.0002,2044
0.0003,2044
0.0004,2044
0.0005,2046
0.0006,2051
0.0007,2055
0.0008,2061
0.0009,2063
0.001,2065
0.0011,2067
0.0012,2068
0.0013,2067
0.0014,2067
0.0015,2064
0.0016,2060
0.0017,2055
0.0018,2052
0.0019,2048
0.002,2045
0.0021,2045
0.0022,2044
0.0023,2043
0.0024,2044
0.0025,2048
0.0026,2053
0.0027,2058
0.0028,2062
0.0029,2063
0.003,2065
0.0031,2066
0.0032,2068
0.0033,2067
0.0034,2065
0.0035,2063
0.0036,2059
0.0037,2055
0.0038,2052
0.0039,2048
0.004,2048
0.0041,2048
0.0042,2046
0.0043,2047
0.0044,2048
0.0045,2049
0.0046,2053
0.0047,2059
0.0048,2063
0.0049,2064
0.005,2067
0.0051,2069
0.0052,2070
0.0053,2069
0.0054,2065
0.0055,2063
0.0056,2060
0.0057,2057
0.0058,2053
0.0059,2049
0.006,2046
0.0061,2046
0.0062,2045
0.0063,2045
0.0064,2045
0.0065,2046
0.0066,2052
0.0067,2056
0.0068,2060
0.0069,2061
0.007,2063
0.0071,2066
0.0072,2067
0.0073,2066
0.0074,2063
0.0075,2059
0.0076,2054
0.0077,2052
0.0078,2049
0.0079,2045
0.008,2043
0.0081,2041
0.0082,2040
0.0083,2041
0.0084,2041
0.0085,2043
0.0086,2048
0.0087,2053
0.0088,2058
0.0089,2060
0.009,2063
0.0091,2064
0.0092,2066
0.0093,2065
0.0094,2064
0.0095,2060
0.0096,2057
0.0097,2053
0.0098,2051
0.0099,2048
0.01,2046
0.0101,2046
0.0102,2047
0.0103,2048
0.0104,2049
0.0105,2051
0.0106,2056
0.0107,2063
0.0108,2067
0.0109,2068
0.011,2071
0.0111,2072
0.0112,2073
0.0113,2075
0.0114,2073
0.0115,2070
0.0116,2068
0.0117,2063
0.0118,2061
0.0119,2056
0.012,2054
0.0121,2054
0.0122,2052
0.0123,2052
0.0124,2052
0.0125,2054
0.0126,2058
0.0127,2064
0.0128,2068
0.0129,2071
0.013,2072
0.0131,2072
0.0132,2073
0.0133,2072
0.0134,2069
0.0135,2065
0.0136,2061
0.0137,2058
0.0138,2054
0.0139,2049
0.014,2048
0.0141,2046
0.0142,2046
0.0143,2045
0.0144,2045
0.0145,2046
0.0146,2050
0.0147,2053
0.0148,2057
0.0149,2060
0.015,2061
0.0151,2063
0.0152,2065
0.0153,2065
0.0154,2063
0.0155,2060
0.0156,2057
0.0157,2051
0.0158,2046
0.0159,2044
0.016,2043
0.0161,2042
0.0162,2042
0.0163,2041
0.0164,2041
0.0165,2043
0.0166,2046
0.0167,2051
0.0168,2056
0.0169,2060
0.017,2062
0.0171,2064
0.0172,2065
0.0173,2065
0.0174,2063
0.0175,2061
0.0176,2058
0.0177,2055
0.0178,2051
0.0179,2046
0.018,2043
0.0181,2043
0.0182,2041
0.0183,2041
0.0184,2041
0.0185,2044
0.0186,2049
0.0187,2053
0.0188,2058
0.0189,2060
0.019,2062
0.0191,2063
0.0192,2064
0.0193,2063
0.0194,2059
0.0195,2057
0.0196,2057
0.0197,2052
0.0198,2050
0.0199,2045
0.02,2042
0.0201,2042
0.0202,2040
0.0203,2041
0.0204,2041
0.0205,2042
0.0206,2046
0.0207,2052
0.0208,2056
0.0209,2059
0.021,2060
0.0211,2064
0.0212,2066
0.0213,2066
0.0214,2064
0.0215,2061
0.0216,2058
0.0217,2052
0.0218,2049
0.0219,2045
0.022,2043
0.0221,2043
0.0222,2042
0.0223,2041
0.0224,2041
0.0225,2042
0.0226,2047
0.0227,2052
0.0228,2056
0.0229,2059
0.023,2060
0.0231,2063
0.0232,2063
0.0233,2063
0.0234,2061
0.0235,2058
0.0236,2054
0.0237,2049
0.0238,2044
0.0239,2040
0.024,2037
0.0241,2034
0.0242,2030
0.0243,2026
0.0244,2022
0.0245,2019
0.0246,2019
0.0247,2018
0.0248,2020
0.0249,2020
0.025,2020
0.0251,2023
0.0252,2024
0.0253,2025
0.0254,2026
0.0255,2026
0.0256,2027
0.0257,2028
0.0258,2028
0.0259,2029
0.026,2029
0.0261,2032
0.0262,2035
0.0263,2039
0.0264,2048
0.0265,2060
0.0266,2080
0.0267,2107
0.0268,2140
0.0269,2174
0.027,2210
0.0271,2246
0.0272,2280
0.0273,2311
0.0274,2335
0.0275,2355
0.0276,2373
0.0277,2385
0.0278,2395
0.0279,2402
0.028,2409
0.0281,2419
0.0282,2426
0.0283,2434
0.0284,2439
0.0285,2443
0.0286,2446
0.0287,2443
0.0288,2435
0.0289,2421
0.029,2400
0.0291,2375
0.0292,2342
0.0293,2305
0.0294,2264
0.0295,2221
0.0296,2183
0.0297,2146
0.0298,2117
0.0299,2095
0.03,2080
0.0301,2071
0.0302,2066
0.0303,2060
0.0304,2057
0.0305,2053
0.0306,2055
0.0307,2056
0.0308,2058
0.0309,2058
0.031,2058
0.0311,2059
0.0312,2057
0.0313,2056
0.0314,2052
0.0315,2045
0.0316,2043
0.0317,2036
0.0318,2030
0.0319,2025
0.032,2021
0.0321,2020
0.0322,2015
0.0323,2015
0.0324,2013
0.0325,2015
0.0326,2019
0.0327,2023
0.0328,2026
0.0329,2028
0.033,2030
0.0331,2031
0.0332,2032
0.0333,2032
0.0334,2029
0.0335,2027
0.0336,2024
0.0337,2020
0.0338,2015
0.0339,2010
0.034,2006
0.0341,2007
0.0342,2008
0.0343,2007
0.0344,2007
0.0345,2009
0.0346,2012
0.0347,2018
0.0348,2020
0.0349,2022
0.035,2025
0.0351,2029
0.0352,2029
0.0353,2031
0.0354,2029
0.0355,2026
0.0356,2024
0.0357,2021
0.0358,2017
0.0359,2014
0.036,2011
0.0361,2014
0.0362,2012
0.0363,2012
0.0364,2012
0.0365,2013
0.0366,2018
0.0367,2022
0.0368,2027
0.0369,2031
0.037,2031
0.0371,2035
0.0372,2038
0.0373,2039
0.0374,2037
0.0375,2033
0.0376,2030
0.0377,2027
0.0378,2023
0.0379,2019
0.038,2017
0.0381,2018
0.0382,2016
0.0383,2016
0.0384,2016
0.0385,2018
0.0386,2022
0.0387,2026
0.0388,2030
0.0389,2033
0.039,2035
0.0391,2038
0.0392,2039
0.0393,2040
0.0394,2040
0.0395,2037
0.0396,2035
0.0397,2033
0.0398,2030
0.0399,2025
0.04,2025
0.0401,2024
0.0402,2023
0.0403,2022
0.0404,2023
0.0405,2025
0.0406,2030
0.0407,2035
0.0408,2040
0.0409,2042
0.041,2043
0.0411,2044
0.0412,2048
0.0413,2047
0.0414,2046
0.0415,2044
0.0416,2043
0.0417,2038
0.0418,2035
0.0419,2033
0.042,2033
0.0421,2032
0.0422,2032
0.0423,2031
0.0424,2032
0.0425,2034
0.0426,2040
0.0427,2045
0.0428,2050
0.0429,2053
0.043,2056
0.0431,2061
0.0432,2060
0.0433,2063
0.0434,2062
0.0435,2061
0.0436,2060
0.0437,2055
0.0438,2050
0.0439,2047
0.044,2045
0.0441,2046
0.0442,2045
0.0443,2046
0.0444,2045
0.0445,2048
0.0446,2053
0.0447,2057
0.0448,2061
0.0449,2064
0.045,2067
0.0451,2070
0.0452,2071
0.0453,2071
0.0454,2070
0.0455,2069
0.0456,2067
0.0457,2064
0.0458,2060
0.0459,2056
0.046,2056
0.0461,2057
0.0462,2055
0.0463,2055
0.0464,2054
0.0465,2056
0.0466,2062
0.0467,2067
0.0468,2072
0.0469,2076
0.047,2078
0.0471,2080
0.0472,2083
0.0473,2084
0.0474,2083
0.0475,2082
0.0476,2080
0.0477,2077
0.0478,2073
0.0479,2071
0.048,2070
0.0481,2070
0.0482,2070
0.0483,2070
0.0484,2070
0.0485,2072
0.0486,2079
0.0487,2084
0.0488,2089
0.0489,2093
0.049,2096
0.0491,2097
0.0492,2100
0.0493,2102
0.0494,2100
0.0495,2098
0.0496,2095
0.0497,2093
0.0498,2089
0.0499,2087
0.05,2085
0.0501,2084
0.0502,2085
0.0503,2086
0.0504,2086
0.0505,2088
0.0506,2093
0.0507,2100
0.0508,2104
0.0509,2107
0.051,2109
0.0511,2110
0.0512,2113
0.0513,2114
0.0514,2113
0.0515,2110
0.0516,2110
0.0517,2105
0.0518,2102
0.0519,2098
0.052,2097
0.0521,2097
0.0522,2096
0.0523,2095
0.0524,2094
0.0525,2096
0.0526,2101
0.0527,2105
0.0528,2110
0.0529,2113
0.053,2115
0.0531,2117
0.0532,2119
0.0533,2119
0.0534,2117
0.0535,2114
0.0536,2113
0.0537,2107
0.0538,2103
0.0539,2099
0.054,2097
0.0541,2097
0.0542,2096
0.0543,2096
0.0544,2094
0.0545,2096
0.0546,2099
0.0547,2103
0.0548,2105
0.0549,2107
0.055,2107
0.0551,2108
0.0552,2107
0.0553,2106
0.0554,2102
0.0555,2097
0.0556,2094
0.0557,2088
0.0558,2082
0.0559,2076
0.056,2072
0.0561,2069
0.0562,2065
0.0563,2062
0.0564,2060
0.0565,2060
0.0566,2062
0.0567,2064
0.0568,2067
0.0569,2067
0.057,2067
0.0571,2069
0.0572,2068
0.0573,2065
0.0574,2062
0.0575,2057
0.0576,2053
0.0577,2045
0.0578,2041
0.0579,2035
0.058,2032
0.0581,2030
0.0582,2025
0.0583,2023
0.0584,2021
0.0585,2022
0.0586,2025
0.0587,2028
0.0588,2029
0.0589,2030
0.059,2031
0.0591,2030
0.0592,2032
0.0593,2031
0.0594,2027
0.0595,2024
0.0596,2021
0.0597,2015
0.0598,2010
0.0599,2005
0.06,2003
0.0601,2002
0.0602,2000
0.0603,1998
0.0604,1997
0.0605,1997
0.0606,2001
0.0607,2004
0.0608,2008
0.0609,2011
0.061,2012
0.0611,2013
0.0612,2015
0.0613,2016
0.0614,2014
0.0615,2012
0.0616,2009
0.0617,2004
0.0618,1999
0.0619,1995
0.062,1992
0.0621,1993
0.0622,1991
0.0623,1989
0.0624,1989
0.0625,1992
0.0626,1997
0.0627,2002
0.0628,2007
0.0629,2010
0.063,2012
0.0631,2012
0.0632,2014
0.0633,2016
0.0634,2015
0.0635,2012
0.0636,2011
0.0637,2006
0.0638,2001
0.0639,1997
0.064,1995
0.0641,1996
0.0642,1995
0.0643,1994
0.0644,1995
0.0645,1997
0.0646,2002
0.0647,2006
0.0648,2010
0.0649,2013
0.065,2016
0.0651,2019
0.0652,2022
0.0653,2021
0.0654,2019
0.0655,2017
0.0656,2015
0.0657,2011
0.0658,2007
0.0659,2003
0.066,2003
0.0661,2003
0.0662,2001
0.0663,1999
0.0664,1999
0.0665,2002
0.0666,2007
0.0667,2011
0.0668,2015
0.0669,2017
0.067,2021
0.0671,2022
0.0672,2025
0.0673,2025
0.0674,2024
0.0675,2022
0.0676,2019
0.0677,2015
0.0678,2011
0.0679,2008
0.068,2007
0.0681,2006
0.0682,2003
0.0683,2003
0.0684,2002
0.0685,2007
0.0686,2010
0.0687,2017
0.0688,2021
0.0689,2023
0.069,2027
0.0691,2030
0.0692,2032
0.0693,2032
0.0694,2031
0.0695,2028
0.0696,2025
0.0697,2021
0.0698,2017
0.0699,2013
0.07,2012
0.0701,2011
0.0702,2010
0.0703,2009
0.0704,2008
0.0705,2012
0.0706,2015
0.0707,2020
0.0708,2024
0.0709,2027
0.071,2030
0.0711,2032
0.0712,2033
0.0713,2033
0.0714,2032
0.0715,2030
0.0716,2028
0.0717,2023
0.0718,2019
0.0719,2015
0.072,2015
0.0721,2014
0.0722,2013
0.0723,2010
0.0724,2010
0.0725,2013
0.0726,2018
0.0727,2023
0.0728,2027
0.0729,2031
0.073,2033
0.0731,2034
0.0732,2037
0.0733,2038
0.0734,2037
0.0735,2034
0.0736,2032
0.0737,2027
0.0738,2023
0.0739,2018
0.074,2016
0.0741,2015
0.0742,2014
0.0743,2013
0.0744,2013
0.0745,2016
0.0746,2019
0.0747,2024
0.0748,2029
0.0749,2031
0.075,2035
0.0751,2037
0.0752,2038
0.0753,2038
0.0754,2036
0.0755,2035
0.0756,2031
0.0757,2027
0.0758,2023
0.0759,2019
0.076,2017
0.0761,2016
0.0762,2014
0.0763,2012
0.0764,2013
0.0765,2017
0.0766,2020
0.0767,2025
0.0768,2029
0.0769,2032
0.077,2035
0.0771,2036
0.0772,2039
0.0773,2038
0.0774,2037
0.0775,2034
0.0776,2031
0.0777,2028
0.0778,2023
0.0779,2019
0.078,2018
0.0781,2017
0.0782,2016
0.0783,2015
0.0784,2015
0.0785,2018
0.0786,2021
0.0787,2028
0.0788,2031
0.0789,2033
0.079,2035
0.0791,2037
0.0792,2038
0.0793,2037
0.0794,2038
0.0795,2036
0.0796,2033
0.0797,2030
0.0798,2025
0.0799,2021
0.08,2019
0.0801,2017
0.0802,2017
0.0803,2016
0.0804,2016
0.0805,2017
0.0806,2022
0.0807,2027
0.0808,2030
0.0809,2033
0.081,2036
0.0811,2037
0.0812,2039
0.0813,2039
0.0814,2038
0.0815,2035
0.0816,2032
0.0817,2030
0.0818,2025
0.0819,2023
0.082,2021
0.0821,2020
0.0822,2019
0.0823,2018
0.0824,2018
0.0825,2020
0.0826,2025
0.0827,2030
0.0828,2033
0.0829,2036
0.083,2038
0.0831,2041
0.0832,2041
0.0833,2040
0.0834,2040
0.0835,2039
0.0836,2037
0.0837,2033
0.0838,2029
0.0839,2025
0.084,2023
0.0841,2023
0.0842,2021
0.0843,2019
0.0844,2019
0.0845,2022
0.0846,2027
0.0847,2032
0.0848,2036
0.0849,2039
0.085,2041
0.0851,2044
0.0852,2046
0.0853,2046
0.0854,2046
0.0855,2043
0.0856,2041
0.0857,2036
0.0858,2032
0.0859,2030
0.086,2028
0.0861,2027
0.0862,2025
0.0863,2024
0.0864,2024
0.0865,2028
0.0866,2032
0.0867,2036
0.0868,2040
0.0869,2042
0.087,2045
0.0871,2046
0.0872,2049
0.0873,2049
0.0874,2048
0.0875,2048
0.0876,2044
0.0877,2040
0.0878,2036
0.0879,2033
0.088,2031
0.0881,2031
0.0882,2029
0.0883,2029
0.0884,2028
0.0885,2032
0.0886,2036
0.0887,2042
0.0888,2045
0.0889,2049
0.089,2052
0.0891,2054
0.0892,2055
0.0893,2054
0.0894,2054
0.0895,2052
0.0896,2049
0.0897,2044
0.0898,2038
0.0899,2035
0.09,2033
0.0901,2033
0.0902,2031
0.0903,2029
0.0904,2030
0.0905,2034
0.0906,2037
0.0907,2042
0.0908,2046
0.0909,2049
0.091,2050
0.0911,2053
0.0912,2055
0.0913,2056
0.0914,2055
0.0915,2053
0.0916,2049
0.0917,2045
0.0918,2041
0.0919,2038
0.092,2037
0.0921,2037
0.0922,2036
0.0923,2034
0.0924,2036
0.0925,2039
0.0926,2043
0.0927,2047
0.0928,2051
0.0929,2055
0.093,2056
0.0931,2057
0.0932,2060
0.0933,2061
0.0934,2059
0.0935,2057
0.0936,2053
0.0937,2049
0.0938,2044
0.0939,2041
0.094,2040
0.0941,2037
0.0942,2036
0.0943,2034
0.0944,2034
0.0945,2038
0.0946,2041
0.0947,2048
0.0948,2051
0.0949,2054
0.095,2057
0.0951,2058
0.0952,2060
0.0953,2060
0.0954,2059
0.0955,2057
0.0956,2054
0.0957,2049
0.0958,2042
0.0959,2041
0.096,2040
0.0961,2039
0.0962,2038
0.0963,2035
0.0964,2037
0.0965,2040
0.0966,2044
0.0967,2049
0.0968,2050
0.0969,2056
0.097,2058
0.0971,2061
0.0972,2061
0.0973,2061
0.0974,2059
0.0975,2056
0.0976,2052
0.0977,2049
0.0978,2043
0.0979,2040
0.098,2040
0.0981,2038
0.0982,2037
0.0983,2035
0.0984,2036
0.0985,2038
0.0986,2042
0.0987,2047
0.0988,2051
0.0989,2054
0.099,2056
0.0991,2060
0.0992,2062
0.0993,2061
0.0994,2060
0.0995,2058
0.0996,2052
0.0997,2050
0.0998,2044
0.0999,2041
0.1,2041
0.1001,2040
0.1002,2038
0.1003,2037
0.1004,2037
0.1005,2040
0.1006,2044
0.1007,2049
0.1008,2052
0.1009,2055
0.101,2057
0.1011,2059
0.1012,2060
0.1013,2060
0.1014,2058
0.1015,2057
0.1016,2053
0.1017,2048
0.1018,2044
0.1019,2041
0.102,2040
0.1021,2038
0.1022,2036
0.1023,2036
0.1024,2036
0.1025,2042
0.1026,2048
0.1027,2053
0.1028,2057
0.1029,2060
0.103,2064
0.1031,2066
0.1032,2067
0.1033,2067
0.1034,2068
0.1035,2065
0.1036,2062
0.1037,2058
0.1038,2054
0.1039,2052
0.104,2051
0.1041,2049
0.1042,2048
0.1043,2047
0.1044,2047
0.1045,2050
0.1046,2053
0.1047,2058
0.1048,2062
0.1049,2065
0.105,2069
0.1051,2069
0.1052,2072
0.1053,2070
0.1054,2068
0.1055,2065
0.1056,2060
0.1057,2056
0.1058,2052
0.1059,2048
0.106,2045
0.1061,2042
0.1062,2040
0.1063,2040
0.1064,2042
0.1065,2045
0.1066,2050
0.1067,2053
0.1068,2057
0.1069,2060
0.107,2063
0.1071,2063
0.1072,2064
0.1073,2063
0.1074,2062
0.1075,2060
0.1076,2056
0.1077,2050
0.1078,2045
0.1079,2042
0.108,2042
0.1081,2040
0.1082,2039
0.1083,2037
0.1084,2037
0.1085,2040
0.1086,2044
0.1087,2050
0.1088,2053
0.1089,2056
0.109,2059
0.1091,2060
0.1092,2062
0.1093,2062
0.1094,2061
0.1095,2060
0.1096,2057
0.1097,2053
0.1098,2048
0.1099,2044
0.11,2044
0.1101,2043
0.1102,2042
0.1103,2041
0.1104,2040
0.1105,2045
0.1106,2049
0.1107,2054
0.1108,2057
0.1109,2061
0.111,2064
0.1111,2066
0.1112,2066
0.1113,2065
0.1114,2063
0.1115,2062
0.1116,2059
0.1117,2055
0.1118,2050
0.1119,2046
0.112,2044
0.1121,2044
0.1122,2043
0.1123,2041
0.1124,2042
0.1125,2048
0.1126,2051
0.1127,2054
0.1128,2058
0.1129,2062
0.113,2065
0.1131,2066
0.1132,2067
0.1133,2066
0.1134,2064
0.1135,2063
0.1136,2060
0.1137,2055
0.1138,2050
0.1139,2048
0.114,2047
0.1141,2047
0.1142,2046
0.1143,2044
0.1144,2044
0.1145,2048
0.1146,2052
0.1147,2057
0.1148,2061
0.1149,2064
0.115,2066
0.1151,2067
0.1152,2067
0.1153,2065
0.1154,2064
0.1155,2061
0.1156,2057
0.1157,2052
0.1158,2047
0.1159,2043
0.116,2042
0.1161,2037
0.1162,2033
0.1163,2029
0.1164,2024
0.1165,2024
0.1166,2023
0.1167,2023
0.1168,2022
0.1169,2021
0.117,2021
0.1171,2023
0.1172,2023
0.1173,2023
0.1174,2025
0.1175,2026
0.1176,2027
0.1177,2026
0.1178,2025
0.1179,2026
0.118,2030
0.1181,2030
0.1182,2033
0.1183,2035
0.1184,2044
0.1185,2059
0.1186,2077
0.1187,2104
0.1188,2136
0.1189,2170
0.119,2207
0.1191,2241
0.1192,2273
0.1193,2299
0.1194,2320
0.1195,2340
0.1196,2353
0.1197,2365
0.1198,2371
0.1199,2378
0.12,2387
0.1201,2394
0.1202,2403
0.1203,2411
0.1204,2418
0.1205,2426
0.1206,2430
0.1207,2430
0.1208,2423
0.1209,2413
0.121,2395
0.1211,2372
0.1212,2342
0.1213,2304
0.1214,2266
0.1215,2225
0.1216,2187
0.1217,2148
0.1218,2115
0.1219,2091
0.122,2076
0.1221,2066
0.1222,2057
0.1223,2052
0.1224,2048
0.1225,2048
0.1226,2050
0.1227,2052
0.1228,2054
0.1229,2054
0.123,2056
0.1231,2055
0.1232,2053
0.1233,2051
0.1234,2047
0.1235,2043
0.1236,2039
0.1237,2034
0.1238,2028
0.1239,2023
0.124,2020
0.1241,2018
0.1242,2015
0.1243,2013
0.1244,2013
0.1245,2017
0.1246,2021
0.1247,2024
0.1248,2027
0.1249,2029
0.125,2029
0.1251,2032
0.1252,2032
0.1253,2030
0.1254,2029
0.1255,2027
0.1256,2022
0.1257,2018
0.1258,2014
0.1259,2011
0.126,2010
0.1261,2008
0.1262,2006
0.1263,2006
0.1264,2008
0.1265,2011
0.1266,2016
0.1267,2020
0.1268,2023
0.1269,2027
0.127,2030
0.1271,2030
0.1272,2031
0.1273,2030
0.1274,2030
0.1275,2027
0.1276,2023
0.1277,2018
0.1278,2015
0.1279,2014
0.128,2012
0.1281,2012
0.1282,2010
0.1283,2008
0.1284,2008
0.1285,2013
0.1286,2017
0.1287,2021
0.1288,2025
0.1289,2028
0.129,2032
0.1291,2033
0.1292,2034
0.1293,2034
0.1294,2033
0.1295,2033
0.1296,2028
0.1297,2024
0.1298,2020
0.1299,2019
0.13,2018
0.1301,2017
0.1302,2017
0.1303,2016
0.1304,2017
0.1305,2020
0.1306,2024
0.1307,2029
0.1308,2033
0.1309,2037
0.131,2041
0.1311,2043
0.1312,2043
0.1313,2044
0.1314,2043
0.1315,2041
0.1316,2036
0.1317,2032
0.1318,2028
0.1319,2026
0.132,2025
0.1321,2023
0.1322,2022
0.1323,2021
0.1324,2024
0.1325,2028
0.1326,2033
0.1327,2037
0.1328,2042
0.1329,2046
0.133,2048
0.1331,2052
0.1332,2053
0.1333,2051
0.1334,2048
0.1335,2047
0.1336,2042
0.1337,2038
0.1338,2035
0.1339,2033
0.134,2034
0.1341,2032
0.1342,2030
0.1343,2032
0.1344,2032
0.1345,2036
0.1346,2040
0.1347,2045
0.1348,2048
0.1349,2053
0.135,2057
0.1351,2059
0.1352,2060
0.1353,2059
0.1354,2059
0.1355,2056
0.1356,2054
0.1357,2050
0.1358,2046
0.1359,2043
0.136,2044
0.1361,2044
0.1362,2042
0.1363,2042
0.1364,2044
0.1365,2049
0.1366,2053
0.1367,2057
0.1368,2061
0.1369,2064
0.137,2068
0.1371,2068
0.1372,2070
0.1373,2069
0.1374,2069
0.1375,2066
0.1376,2063
0.1377,2060
0.1378,2056
0.1379,2054
0.138,2055
0.1381,2053
0.1382,2051
0.1383,2050
0.1384,2053
0.1385,2058
0.1386,2062
0.1387,2067
0.1388,2071
0.1389,2076
0.139,2080
0.1391,2080
0.1392,2081
0.1393,2081
0.1394,2079
0.1395,2076
0.1396,2075
0.1397,2072
0.1398,2068
0.1399,2065
0.14,2066
0.1401,2064
0.1402,2061
0.1403,2063
0.1404,2065
0.1405,2070
0.1406,2075
0.1407,2080
0.1408,2085
0.1409,2090
0.141,2092
0.1411,2097
0.1412,2098
0.1413,2096
0.1414,2096
0.1415,2095
0.1416,2089
0.1417,2087
0.1418,2082
0.1419,2080
0.142,2078
0.1421,2078
0.1422,2078
0.1423,2078
0.1424,2079
0.1425,2084
0.1426,2088
0.1427,2093
0.1428,2098
0.1429,2101
0.143,2105
0.1431,2107
0.1432,2108
0.1433,2108
0.1434,2106
0.1435,2102
0.1436,2100
0.1437,2095
0.1438,2091
0.1439,2088
0.144,2085
0.1441,2086
0.1442,2084
0.1443,2084
0.1444,2086
0.1445,2091
0.1446,2094
0.1447,2100
0.1448,2102
0.1449,2105
0.145,2107
0.1451,2110
0.1452,2111
0.1453,2111
0.1454,2108
0.1455,2107
0.1456,2102
0.1457,2097
0.1458,2091
0.1459,2088
0.146,2087
0.1461,2085
0.1462,2083
0.1463,2080
0.1464,2081
0.1465,2085
0.1466,2088
0.1467,2091
0.1468,2093
0.1469,2095
0.147,2097
0.1471,2096
0.1472,2094
0.1473,2091
0.1474,2088
0.1475,2084
0.1476,2078
0.1477,2071
0.1478,2065
0.1479,2060
0.148,2057
0.1481,2054
0.1482,2051
0.1483,2048
0.1484,2048
0.1485,2050
0.1486,2051
0.1487,2055
0.1488,2057
0.1489,2058
0.149,2061
0.1491,2059
0.1492,2058
0.1493,2055
0.1494,2051
0.1495,2048
0.1496,2042
0.1497,2034
0.1498,2030
0.1499,2025
0.15,2023
0.1501,2021
0.1502,2019
0.1503,2017
0.1504,2017
0.1505,2020
0.1506,2023
0.1507,2026
0.1508,2029
0.1509,2031
0.151,2032
0.1511,2032
0.1512,2030
0.1513,2029
0.1514,2026
0.1515,2022
0.1516,2017
0.1517,2011
0.1518,2006
0.1519,2004
0.152,2002
0.1521,1999
0.1522,1997
0.1523,1997
0.1524,1999
0.1525,2003
0.1526,2007
0.1527,2011
0.1528,2013
0.1529,2016
0.153,2016
0.1531,2019
0.1532,2019
0.1533,2017
0.1534,2016
0.1535,2014
0.1536,2008
0.1537,2005
0.1538,2001
0.1539,1999
0.154,1997
0.1541,1997
0.1542,1995
0.1543,1994
0.1544,1997
0.1545,2001
0.1546,2005
0.1547,2010
0.1548,2014
0.1549,2016
0.155,2020
0.1551,2022
0.1552,2022
0.1553,2021
0.1554,2019
0.1555,2017
0.1556,2012
0.1557,2008
0.1558,2003
0.1559,2003
0.156,2002
0.1561,2001
0.1562,2000
0.1563,1999
0.1564,2001
0.1565,2005
0.1566,2010
0.1567,2012
0.1568,2017
0.1569,2021
0.157,2026
0.1571,2027
0.1572,2027
0.1573,2026
0.1574,2026
0.1575,2023
0.1576,2019
0.1577,2014
0.1578,2011
0.1579,2009
0.158,2008
0.1581,2006
0.1582,2005
0.1583,2005
0.1584,2006
0.1585,2011
0.1586,2016
0.1587,2022
0.1588,2025
0.1589,2030
0.159,2031
0.1591,2033
0.1592,2032
0.1593,2030
0.1594,2029
0.1595,2026
0.1596,2023
0.1597,2018
0.1598,2014
0.1599,2012
0.16,2011
0.1601,2011
0.1602,2009
0.1603,2010
0.1604,2012
0.1605,2017
0.1606,2021
0.1607,2024
0.1608,2030
0.1609,2034
0.161,2037
0.1611,2039
0.1612,2038
0.1613,2037
0.1614,2036
0.1615,2032
0.1616,2029
0.1617,2025
0.1618,2020
0.1619,2017
0.162,2016
0.1621,2016
0.1622,2016
0.1623,2016
0.1624,2017
0.1625,2022
0.1626,2026
0.1627,2029
0.1628,2033
0.1629,2036
0.163,2040
0.1631,2041
0.1632,2040
0.1633,2041
0.1634,2038
0.1635,2036
0.1636,2030
0.1637,2026
0.1638,2022
0.1639,2020
0.164,2018
0.1641,2018
0.1642,2017
0.1643,2018
0.1644,2020
0.1645,2024
0.1646,2029
0.1647,2031
0.1648,2035
0.1649,2040
0.165,2044
0.1651,2045
0.1652,2045
0.1653,2043
0.1654,2042
0.1655,2039
0.1656,2034
0.1657,2029
0.1658,2024
0.1659,2021
0.166,2020
0.1661,2018
0.1662,2017
0.1663,2017
0.1664,2020
0.1665,2025
0.1666,2029
0.1667,2034
0.1668,2036
0.1669,2039
0.167,2041
0.1671,2042
0.1672,2043
0.1673,2041
0.1674,2041
0.1675,2036
0.1676,2031
0.1677,2026
0.1678,2022
0.1679,2021
0.168,2021
0.1681,2020
0.1682,2019
0.1683,2019
0.1684,2021
0.1685,2027
0.1686,2031
0.1687,2035
0.1688,2040
0.1689,2043
0.169,2044
0.1691,2046
0.1692,2048
0.1693,2046
0.1694,2042
0.1695,2041
0.1696,2036
0.1697,2033
0.1698,2029
0.1699,2027
0.17,2025
0.1701,2023
0.1702,2023
0.1703,2023
0.1704,2025
0.1705,2029
0.1706,2035
0.1707,2039
0.1708,2041
0.1709,2045
0.171,2047
0.1711,2049
0.1712,2049
0.1713,2047
0.1714,2044
0.1715,2041
0.1716,2037
0.1717,2033
0.1718,2029
0.1719,2027
0.172,2026
0.1721,2027
0.1722,2025
0.1723,2025
0.1724,2027
0.1725,2031
0.1726,2036
0.1727,2041
0.1728,2043
0.1729,2047
0.173,2049
0.1731,2051
0.1732,2050
0.1733,2050
0.1734,2048
0.1735,2044
0.1736,2039
0.1737,2034
0.1738,2030
0.1739,2027
0.174,2027
0.1741,2025
0.1742,2025
0.1743,2025
0.1744,2028
0.1745,2031
0.1746,2036
0.1747,2040
0.1748,2042
0.1749,2045
0.175,2049
0.1751,2049
0.1752,2050
0.1753,2048
0.1754,2046
0.1755,2044
0.1756,2039
0.1757,2035
0.1758,2030
0.1759,2030
0.176,2029
0.1761,2029
0.1762,2027
0.1763,2028
0.1764,2031
0.1765,2035
0.1766,2039
0.1767,2044
0.1768,2048
0.1769,2050
0.177,2053
0.1771,2054
0.1772,2054
0.1773,2053
0.1774,2051
0.1775,2048
0.1776,2042
0.1777,2037
0.1778,2033
0.1779,2031
0.178,2030
0.1781,2029
0.1782,2027
0.1783,2028
0.1784,2031
0.1785,2034
0.1786,2040
0.1787,2043
0.1788,2049
0.1789,2053
0.179,2055
0.1791,2056
0.1792,2056
0.1793,2053
0.1794,2051
0.1795,2049
0.1796,2043
0.1797,2039
0.1798,2035
0.1799,2033
0.18,2031
0.1801,2031
0.1802,2029
0.1803,2030
0.1804,2033
0.1805,2038
0.1806,2043
0.1807,2048
0.1808,2050
0.1809,2054
0.181,2058
0.1811,2057
0.1812,2057
0.1813,2056
0.1814,2052
0.1815,2051
0.1816,2046
0.1817,2041
0.1818,2037
0.1819,2035
0.182,2035
0.1821,2033
0.1822,2031
0.1823,2031
0.1824,2035
0.1825,2039
0.1826,2044
0.1827,2048
0.1828,2051
0.1829,2054
0.183,2057
0.1831,2058
0.1832,2057
0.1833,2057
0.1834,2055
0.1835,2051
0.1836,2048
0.1837,2042
0.1838,2039
0.1839,2039
0.184,2037
0.1841,2037
0.1842,2035
0.1843,2037
0.1844,2040
0.1845,2045
0.1846,2049
0.1847,2054
0.1848,2057
0.1849,2060
0.185,2062
0.1851,2063
0.1852,2062
0.1853,2060
0.1854,2058
0.1855,2056
0.1856,2051
0.1857,2045
0.1858,2040
0.1859,2040
0.186,2038
0.1861,2036
0.1862,2036
0.1863,2037
0.1864,2041
0.1865,2046
0.1866,2050
0.1867,2054
0.1868,2058
0.1869,2062
0.187,2062
0.1871,2064
0.1872,2063
0.1873,2061
0.1874,2060
0.1875,2056
0.1876,2053
0.1877,2048
0.1878,2044
0.1879,2041
0.188,2041
0.1881,2040
0.1882,2039
0.1883,2039
0.1884,2043
0.1885,2047
0.1886,2052
0.1887,2056
0.1888,2060
0.1889,2064
0.189,2065
0.1891,2067
0.1892,2066
0.1893,2063
0.1894,2062
0.1895,2059
0.1896,2054
0.1897,2048
0.1898,2044
0.1899,2044
0.19,2042
0.1901,2040
0.1902,2040
0.1903,2041
0.1904,2047
0.1905,2050
0.1906,2056
0.1907,2060
0.1908,2063
0.1909,2068
0.191,2070
0.1911,2071
0.1912,2070
0.1913,2069
0.1914,2067
0.1915,2063
0.1916,2057
0.1917,2053
0.1918,2048
0.1919,2045
0.192,2045
0.1921,2045
0.1922,2045
0.1923,2045
0.1924,2049
0.1925,2053
0.1926,2057
0.1927,2060
0.1928,2064
0.1929,2068
0.193,2069
0.1931,2071
0.1932,2070
0.1933,2067
0.1934,2065
0.1935,2062
0.1936,2058
0.1937,2052
0.1938,2048
0.1939,2046
0.194,2043
0.1941,2042
0.1942,2041
0.1943,2041
0.1944,2046
0.1945,2050
0.1946,2055
0.1947,2059
0.1948,2062
0.1949,2066
0.195,2067
0.1951,2068
0.1952,2066
0.1953,2065
0.1954,2063
0.1955,2058
0.1956,2053
0.1957,2048
0.1958,2043
0.1959,2042
0.196,2041
0.1961,2040
0.1962,2040
0.1963,2042
0.1964,2047
0.1965,2050
0.1966,2055
0.1967,2060
0.1968,2062
0.1969,2066
0.197,2068
0.1971,2069
0.1972,2068
0.1973,2067
0.1974,2065
0.1975,2061
0.1976,2058
0.1977,2053
0.1978,2050
0.1979,2050
0.198,2048
0.1981,2048
0.1982,2048
0.1983,2049
0.1984,2054
0.1985,2058
0.1986,2063
0.1987,2067
0.1988,2069
0.1989,2073
0.199,2077
0.1991,2078
0.1992,2076
0.1993,2075
0.1994,2074
0.1995,2070
0.1996,2065
0.1997,2059
0.1998,2055
0.1999,2055
0.2,2052
0.2001,2051
0.2002,2050
0.2003,2051
0.2004,2056
0.2005,2060
0.2006,2065
0.2007,2069
0.2008,2072
0.2009,2076
0.201,2077
0.2011,2077
0.2012,2075
0.2013,2073
0.2014,2070
0.2015,2068
0.2016,2062
0.2017,2056
0.2018,2053
0.2019,2053
0.202,2051
0.2021,2050
0.2022,2049
0.2023,2049
0.2024,2053
0.2025,2056
0.2026,2061
0.2027,2063
0.2028,2066
0.2029,2069
0.203,2072
0.2031,2072
0.2032,2069
0.2033,2067
0.2034,2065
0.2035,2062
0.2036,2056
0.2037,2051
0.2038,2047
0.2039,2046
0.204,2046
0.2041,2045
0.2042,2044
0.2043,2044
0.2044,2047
0.2045,2052
0.2046,2057
0.2047,2060
0.2048,2063
0.2049,2066
0.205,2068
0.2051,2069
0.2052,2068
0.2053,2066
0.2054,2064
0.2055,2060
0.2056,2055
0.2057,2051
0.2058,2047
0.2059,2045
0.206,2044
0.2061,2043
0.2062,2041
0.2063,2041
0.2064,2047
0.2065,2051
0.2066,2056
0.2067,2060
0.2068,2064
0.2069,2066
0.207,2070
0.2071,2070
0.2072,2070
0.2073,2068
0.2074,2066
0.2075,2062
0.2076,2057
0.2077,2053
0.2078,2050
0.2079,2049
0.208,2047
0.2081,2044
0.2082,2044
0.2083,2044
0.2084,2046
0.2085,2051
0.2086,2055
0.2087,2058
0.2088,2061
0.2089,2066
0.209,2069
0.2091,2069
0.2092,2068
0.2093,2067
0.2094,2065
0.2095,2061
0.2096,2054
0.2097,2050
0.2098,2045
0.2099,2043
0.21,2044
0.2101,2042
0.2102,2042
0.2103,2042
0.2104,2048
0.2105,2051
0.2106,2055
0.2107,2059
0.2108,2063
0.2109,2066
0.211,2067
0.2111,2067
0.2112,2066
0.2113,2064
0.2114,2061
0.2115,2053
0.2116,2046
0.2117,2038
0.2118,2030
0.2119,2024
0.212,2018
0.2121,2011
0.2122,2005
0.2123,2002
0.2124,2001
0.2125,2004
0.2126,2008
0.2127,2012
0.2128,2017
0.2129,2023
0.213,2028
0.2131,2033
0.2132,2033
0.2133,2035
0.2134,2033
0.2135,2031
0.2136,2028
0.2137,2028
0.2138,2036
0.2139,2052
0.214,2078
0.2141,2107
0.2142,2139
0.2143,2174
0.2144,2209
0.2145,2243
0.2146,2273
0.2147,2299
0.2148,2321
0.2149,2340
0.215,2358
0.2151,2373
0.2152,2388
0.2153,2402
0.2154,2416
0.2155,2430
0.2156,2441
0.2157,2450
0.2158,2461
0.2159,2469
0.216,2476
0.2161,2479
0.2162,2476
0.2163,2467
0.2164,2450
0.2165,2426
0.2166,2395
0.2167,2357
0.2168,2318
0.2169,2279
0.217,2237
0.2171,2197
0.2172,2160
0.2173,2130
0.2174,2108
0.2175,2090
0.2176,2075
0.2177,2064
0.2178,2056
0.2179,2052
0.218,2048
0.2181,2044
0.2182,2038
0.2183,2037
0.2184,2039
0.2185,2040
0.2186,2043
0.2187,2044
0.2188,2046
0.2189,2048
0.219,2047
0.2191,2045
0.2192,2043
0.2193,2038
0.2194,2035
0.2195,2028
0.2196,2022
0.2197,2017
0.2198,2012
0.2199,2008
0.22,2006
0.2201,2004
0.2202,2002
0.2203,2002
0.2204,2005
0.2205,2008
0.2206,2013
0.2207,2017
0.2208,2020
0.2209,2021
0.221,2025
0.2211,2025
0.2212,2023
0.2213,2022
0.2214,2021
0.2215,2015
0.2216,2011
0.2217,2005
0.2218,2002
0.2219,2001
0.222,1999
0.2221,1998
0.2222,1998
0.2223,1999
0.2224,2004
0.2225,2008
0.2226,2013
0.2227,2017
0.2228,2021
0.2229,2025
0.223,2027
0.2231,2028
0.2232,2027
0.2233,2025
0.2234,2023
0.2235,2017
0.2236,2012
0.2237,2008
0.2238,2005
0.2239,2004
0.224,2003
0.2241,2001
0.2242,2000
0.2243,2001
0.2244,2006
0.2245,2009
0.2246,2014
0.2247,2018
0.2248,2022
0.2249,2027
0.225,2028
0.2251,2029
0.2252,2028
0.2253,2026
0.2254,2025
0.2255,2019
0.2256,2015
0.2257,2011
0.2258,2007
0.2259,2007
0.226,2005
0.2261,2005
0.2262,2005
0.2263,2006
0.2264,2013
0.2265,2016
0.2266,2020
0.2267,2026
0.2268,2030
0.2269,2035
0.227,2036
0.2271,2036
0.2272,2035
0.2273,2035
0.2274,2033
0.2275,2028
0.2276,2024
0.2277,2018
0.2278,2016
0.2279,2014
0.228,2013
0.2281,2012
0.2282,2012
0.2283,2013
0.2284,2018
0.2285,2023
0.2286,2027
0.2287,2031
0.2288,2037
0.2289,2039
0.229,2042
0.2291,2043
0.2292,2042
0.2293,2041
0.2294,2041
0.2295,2036
0.2296,2031
0.2297,2025
0.2298,2024
0.2299,2024
0.23,2022
0.2301,2021
0.2302,2022
0.2303,2024
0.2304,2028
0.2305,2033
0.2306,2038
0.2307,2043
0.2308,2048
0.2309,2054
0.231,2054
0.2311,2054
0.2312,2054
0.2313,2052
0.2314,2050
0.2315,2045
0.2316,2039
0.2317,2035
0.2318,2033
0.2319,2032
0.232,2031
0.2321,2030
0.2322,2030
0.2323,2032
0.2324,2036
0.2325,2040
0.2326,2045
0.2327,2049
0.2328,2054
0.2329,2059
0.233,2062
0.2331,2062
0.2332,2063
0.2333,2060
0.2334,2057
0.2335,2055
0.2336,2050
0.2337,2046
0.2338,2043
0.2339,2041
0.234,2042
0.2341,2041
0.2342,2041
0.2343,2043
0.2344,2048
0.2345,2054
0.2346,2060
0.2347,2065
0.2348,2069
0.2349,2073
0.235,2076
0.2351,2076
0.2352,2077
0.2353,2076
0.2354,2074
0.2355,2070
0.2356,2066
0.2357,2062
0.2358,2061
0.2359,2060
0.236,2060
0.2361,2059
0.2362,2060
0.2363,2062
0.2364,2066
0.2365,2073
0.2366,2078
0.2367,2083
0.2368,2087
0.2369,2091
0.237,2094
0.2371,2096
0.2372,2095
0.2373,2094
0.2374,2091
0.2375,2089
0.2376,2084
0.2377,2078
0.2378,2077
0.2379,2077
0.238,2076
0.2381,2076
0.2382,2075
0.2383,2078
0.2384,2083
0.2385,2088
0.2386,2092
0.2387,2097
0.2388,2102
0.2389,2105
0.239,2107
0.2391,2106
0.2392,2106
0.2393,2107
0.2394,2104
0.2395,2098
0.2396,2093
0.2397,2089
0.2398,2086
0.2399,2083
0.24,2083
0.2401,2081
0.2402,2082
0.2403,2085
0.2404,2090
0.2405,2095
0.2406,2099
0.2407,2103
0.2408,2107
0.2409,2110
0.241,2112
0.2411,2112
0.2412,2110
0.2413,2107
0.2414,2103
0.2415,2099
0.2416,2094
0.2417,2089
0.2418,2085
0.2419,2083
0.242,2079
0.2421,2077
0.2422,2075
0.2423,2077
0.2424,2079
0.2425,2083
0.2426,2087
0.2427,2088
0.2428,2092
0.2429,2094
0.243,2094
0.2431,2093
0.2432,2090
0.2433,2086
0.2434,2083
0.2435,2076
0.2436,2069
0.2437,2062
0.2438,2057
0.2439,2055
0.244,2052
0.2441,2051
0.2442,2047
0.2443,2047
0.2444,2049
0.2445,2050
0.2446,2054
0.2447,2057
0.2448,2059
0.2449,2060
0.245,2060
0.2451,2057
0.2452,2055
0.2453,2052
0.2454,2048
0.2455,2041
0.2456,2034
0.2457,2029
0.2458,2025
0.2459,2022
0.246,2019
0.2461,2017
0.2462,2015
0.2463,2017
0.2464,2018
0.2465,2021
0.2466,2024
0.2467,2027
0.2468,2030
0.2469,2032
0.247,2031
0.2471,2031
0.2472,2029
0.2473,2027
0.2474,2023
0.2475,2017
0.2476,2011
0.2477,2005
0.2478,2001
0.2479,1999
0.248,1997
0.2481,1996
0.2482,1996
0.2483,1998
0.2484,2002
0.2485,2005
0.2486,2010
0.2487,2013
0.2488,2017
0.2489,2019
0.249,2021
0.2491,2021
0.2492,2020
0.2493,2019
0.2494,2015
0.2495,2010
0.2496,2005
0.2497,2000
0.2498,1998
0.2499,1996
0.25,1994
0.2501,1993
0.2502,1992
0.2503,1994
0.2504,1997
0.2505,2003
0.2506,2009
0.2507,2012
0.2508,2016
0.2509,2020
0.251,2022
0.2511,2023
0.2512,2021
0.2513,2021
0.2514,2017
0.2515,2013
0.2516,2009
0.2517,2005
0.2518,2002
0.2519,2001
0.252,1999
0.2521,1998
0.2522,1998
0.2523,2001
0.2524,2006
0.2525,2010
0.2526,2015
0.2527,2019
0.2528,2024
0.2529,2027
0.253,2030
0.2531,2030
0.2532,2028
0.2533,2027
0.2534,2023
0.2535,2018
0.2536,2011
0.2537,2008
0.2538,2006
0.2539,2003
0.254,2004
0.2541,2002
0.2542,2001
0.2543,2004
0.2544,2008
0.2545,2013
0.2546,2016
0.2547,2023
0.2548,2028
0.2549,2032
0.255,2033
0.2551,2033
0.2552,2034
0.2553,2033
0.2554,2030
0.2555,2025
0.2556,2019
0.2557,2015
0.2558,2013
0.2559,2011
0.256,2011
0.2561,2009
0.2562,2010
0.2563,2013
0.2564,2017
0.2565,2022
0.2566,2027
0.2567,2031
0.2568,2035
0.2569,2039
0.257,2041
0.2571,2041
0.2572,2040
0.2573,2039
0.2574,2036
0.2575,2031
0.2576,2026
0.2577,2021
0.2578,2019
0.2579,2016
0.258,2015
0.2581,2011
0.2582,2013
0.2583,2015
0.2584,2018
0.2585,2024
0.2586,2030
0.2587,2035
0.2588,2040
0.2589,2043
0.259,2044
0.2591,2043
0.2592,2043
0.2593,2040
0.2594,2039
0.2595,2034
0.2596,2028
0.2597,2022
0.2598,2020
0.2599,2018
0.26,2017
0.2601,2017
0.2602,2017
0.2603,2018
0.2604,2024
0.2605,2028
0.2606,2031
0.2607,2037
0.2608,2042
0.2609,2045
0.261,2046
0.2611,2047
0.2612,2045
0.2613,2044
0.2614,2040
0.2615,2036
0.2616,2030
0.2617,2026
0.2618,2024
0.2619,2022
0.262,2022
0.2621,2020
0.2622,2018
0.2623,2020
0.2624,2023
0.2625,2027
0.2626,2032
0.2627,2037
0.2628,2043
0.2629,2046
0.263,2048
0.2631,2048
0.2632,2046
0.2633,2045
0.2634,2043
0.2635,2038
0.2636,2033
0.2637,2028
0.2638,2024
0.2639,2024
0.264,2023
0.2641,2021
0.2642,2022
0.2643,2024
0.2644,2029
0.2645,2034
0.2646,2038
0.2647,2042
0.2648,2047
0.2649,2049
0.265,2051
0.2651,2051
0.2652,2049
0.2653,2049
0.2654,2044
0.2655,2041
0.2656,2036
0.2657,2031
0.2658,2029
0.2659,2027
0.266,2025
0.2661,2023
0.2662,2023
0.2663,2026
0.2664,2030
0.2665,2035
0.2666,2040
0.2667,2045
0.2668,2049
0.2669,2053
0.267,2055
0.2671,2054
0.2672,2053
0.2673,2052
0.2674,2048
0.2675,2044
0.2676,2037
0.2677,2032
0.2678,2028
0.2679,2027
0.268,2026
0.2681,2025
0.2682,2025
0.2683,2028
0.2684,2032
0.2685,2037
0.2686,2041
0.2687,2048
0.2688,2052
0.2689,2055
0.269,2056
0.2691,2055
0.2692,2054
0.2693,2053
0.2694,2050
0.2695,2045
0.2696,2038
0.2697,2034
0.2698,2032
0.2699,2032
0.27,2030
0.2701,2028
0.2702,2028
0.2703,2030
0.2704,2035
0.2705,2040
0.2706,2045
0.2707,2050
0.2708,2054
0.2709,2059
0.271,2060
0.2711,2060
0.2712,2059
0.2713,2057
0.2714,2056
0.2715,2050
0.2716,2045
0.2717,2039
0.2718,2037
0.2719,2036
0.272,2035
0.2721,2034
0.2722,2034
0.2723,2036
0.2724,2041
0.2725,2045
0.2726,2049
0.2727,2054
0.2728,2059
0.2729,2062
0.273,2063
0.2731,2063
0.2732,2062
0.2733,2059
0.2734,2056
0.2735,2052
0.2736,2047
0.2737,2041
0.2738,2038
0.2739,2038
0.274,2037
0.2741,2036
0.2742,2036
0.2743,2040
0.2744,2043
0.2745,2048
0.2746,2052
0.2747,2056
0.2748,2060
0.2749,2063
0.275,2065
0.2751,2064
0.2752,2063
0.2753,2063
0.2754,2059
0.2755,2054
0.2756,2046
0.2757,2042
0.2758,2041
0.2759,2039
0.276,2037
0.2761,2036
0.2762,2036
0.2763,2040
0.2764,2043
0.2765,2047
0.2766,2053
0.2767,2057
0.2768,2062
0.2769,2065
0.277,2066
0.2771,2066
0.2772,2064
0.2773,2063
0.2774,2059
0.2775,2054
0.2776,2048
0.2777,2043
0.2778,2040
0.2779,2036
0.278,2036
0.2781,2035
0.2782,2034
0.2783,2038
0.2784,2042
0.2785,2048
0.2786,2052
0.2787,2056
0.2788,2063
0.2789,2064
0.279,2066
0.2791,2065
0.2792,2063
0.2793,2064
0.2794,2059
0.2795,2054
0.2796,2047
0.2797,2041
0.2798,2039
0.2799,2039
0.28,2037
0.2801,2035
0.2802,2034
0.2803,2037
0.2804,2040
0.2805,2045
0.2806,2049
0.2807,2053
0.2808,2059
0.2809,2063
0.281,2064
0.2811,2064
0.2812,2063
0.2813,2061
0.2814,2056
0.2815,2051
0.2816,2044
0.2817,2039
0.2818,2038
0.2819,2035
0.282,2034
0.2821,2032
0.2822,2033
0.2823,2036
0.2824,2041
0.2825,2046
0.2826,2052
0.2827,2056
0.2828,2061
0.2829,2063
0.283,2064
0.2831,2064
0.2832,2062
0.2833,2061
0.2834,2058
0.2835,2054
0.2836,2049
0.2837,2044
0.2838,2042
0.2839,2039
0.284,2038
0.2841,2036
0.2842,2037
0.2843,2041
0.2844,2043
0.2845,2048
0.2846,2051
0.2847,2057
0.2848,2060
0.2849,2063
0.285,2063
0.2851,2063
0.2852,2063
0.2853,2063
0.2854,2059
0.2855,2054
0.2856,2049
0.2857,2043
0.2858,2040
0.2859,2040
0.286,2038
0.2861,2037
0.2862,2036
0.2863,2040
0.2864,2044
0.2865,2049
0.2866,2053
0.2867,2058
0.2868,2063
0.2869,2065
0.287,2067
0.2871,2066
0.2872,2065
0.2873,2065
0.2874,2060
0.2875,2055
0.2876,2050
0.2877,2045
0.2878,2043
0.2879,2042
0.288,2041
0.2881,2039
0.2882,2040
0.2883,2042
0.2884,2047
0.2885,2051
0.2886,2055
0.2887,2059
0.2888,2064
0.2889,2065
0.289,2067
0.2891,2066
0.2892,2066
0.2893,2063
0.2894,2060
0.2895,2055
0.2896,2049
0.2897,2045
0.2898,2042
0.2899,2041
0.29,2041
0.2901,2039
0.2902,2041
0.2903,2043
0.2904,2046
0.2905,2052
0.2906,2056
0.2907,2060
0.2908,2065
0.2909,2067
0.291,2068
0.2911,2068
0.2912,2067
0.2913,2065
0.2914,2063
0.2915,2058
0.2916,2051
0.2917,2046
0.2918,2045
0.2919,2042
0.292,2040
0.2921,2038
0.2922,2037
0.2923,2040
0.2924,2042
0.2925,2048
0.2926,2053
0.2927,2058
0.2928,2063
0.2929,2067
0.293,2067
0.2931,2067
0.2932,2067
0.2933,2063
0.2934,2060
0.2935,2056
0.2936,2050
0.2937,2046
0.2938,2044
0.2939,2043
0.294,2041
0.2941,2040
0.2942,2042
0.2943,2044
0.2944,2049
0.2945,2053
0.2946,2057
0.2947,2060
0.2948,2065
0.2949,2067
0.295,2068
0.2951,2066
0.2952,2066
0.2953,2065
0.2954,2062
0.2955,2058
0.2956,2053
0.2957,2049
0.2958,2045
0.2959,2043
0.296,2044
0.2961,2041
0.2962,2041
0.2963,2044
0.2964,2049
0.2965,2054
0.2966,2058
0.2967,2063
0.2968,2068
0.2969,2069
0.297,2070
0.2971,2069
0.2972,2068
0.2973,2066
0.2974,2062
0.2975,2056
0.2976,2050
0.2977,2045
0.2978,2042
0.2979,2040
0.298,2038
0.2981,2037
0.2982,2038
0.2983,2041
0.2984,2044
0.2985,2049
0.2986,2053
0.2987,2057
0.2988,2061
0.2989,2065
0.299,2066
0.2991,2066
0.2992,2065
0.2993,2063
0.2994,2061
0.2995,2057
0.2996,2050
0.2997,2046
0.2998,2044
0.2999,2041
0.3,2040
0.3001,2039
0.3002,2041
0.3003,2044
0.3004,2051
0.3005,2056
0.3006,2062
0.3007,2068
0.3008,2074
0.3009,2075
0.301,2078
0.3011,2077
0.3012,2077
0.3013,2076
0.3014,2071
0.3015,2065
0.3016,2060
0.3017,2056
0.3018,2054
0.3019,2054
0.302,2054
0.3021,2051
0.3022,2052
0.3023,2055
0.3024,2059
0.3025,2063
0.3026,2067
0.3027,2072
0.3028,2076
0.3029,2078
0.303,2079
0.3031,2079
0.3032,2077
0.3033,2074
0.3034,2071
0.3035,2065
0.3036,2059
0.3037,2054
0.3038,2052
0.3039,2050
0.304,2050
0.3041,2048
0.3042,2047
0.3043,2051
0.3044,2053
0.3045,2058
0.3046,2061
0.3047,2065
0.3048,2071
0.3049,2071
0.305,2071
0.3051,2071
0.3052,2069
0.3053,2067
0.3054,2061
0.3055,2055
0.3056,2049
0.3057,2045
0.3058,2042
0.3059,2041
0.306,2039
0.3061,2039
0.3062,2041
0.3063,2042
0.3064,2048
0.3065,2051
0.3066,2055
0.3067,2061
0.3068,2066
0.3069,2068
0.307,2070
0.3071,2069
0.3072,2068
0.3073,2067
0.3074,2064
0.3075,2057
0.3076,2051
0.3077,2048
0.3078,2046
0.3079,2042
0.308,2041
0.3081,2040
0.3082,2041
0.3083,2043
0.3084,2046
0.3085,2051
0.3086,2056
0.3087,2060
0.3088,2065
0.3089,2067
0.309,2068
0.3091,2069
0.3092,2070
0.3093,2068
0.3094,2064
0.3095,2058
0.3096,2053
0.3097,2049
0.3098,2045
0.3099,2045
0.31,2044
0.3101,2042
0.3102,2042
0.3103,2045
0.3104,2049
0.3105,2054
0.3106,2058
0.3107,2063
0.3108,2068
0.3109,2069
0.311,2070
0.3111,2068
0.3112,2069
0.3113,2067
0.3114,2063
0.3115,2057
0.3116,2051
0.3117,2047
0.3118,2046
0.3119,2044
0.312,2042
0.3121,2040
0.3122,2042
0.3123,2045
0.3124,2050
0.3125,2054
0.3126,2058
0.3127,2062
0.3128,2066
0.3129,2070
0.313,2071
0.3131,2069
0.3132,2068
0.3133,2067
0.3134,2061
0.3135,2057
0.3136,2052
0.3137,2048
0.3138,2045
0.3139,2043
0.314,2041
0.3141,2039
0.3142,2040
0.3143,2041
0.3144,2044
0.3145,2046
0.3146,2048
0.3147,2049
0.3148,2048
0.3149,2045
0.315,2040
0.3151,2035
0.3152,2029
0.3153,2023
0.3154,2016
0.3155,2011
0.3156,2004
0.3157,2001
0.3158,2000
0.3159,2001
0.316,2002
0.3161,2003
0.3162,2008
0.3163,2014
0.3164,2019
0.3165,2026
0.3166,2033
0.3167,2045
0.3168,2062
0.3169,2084
0.317,2111
0.3171,2141
0.3172,2173
0.3173,2205
0.3174,2234
0.3175,2257
0.3176,2277
0.3177,2296
0.3178,2312
0.3179,2329
0.318,2343
0.3181,2355
0.3182,2371
0.3183,2389
0.3184,2410
0.3185,2429
0.3186,2450
0.3187,2469
0.3188,2485
0.3189,2495
0.319,2502
0.3191,2503
0.3192,2499
0.3193,2482
0.3194,2455
0.3195,2420
0.3196,2377
0.3197,2332
0.3198,2286
0.3199,2238
0.32,2196
0.3201,2157
0.3202,2125
0.3203,2103
0.3204,2089
0.3205,2080
0.3206,2076
0.3207,2076
0.3208,2076
0.3209,2075
0.321,2073
0.3211,2069
0.3212,2065
0.3213,2059
0.3214,2054
0.3215,2046
0.3216,2039
0.3217,2033
0.3218,2029
0.3219,2023
0.322,2019
0.3221,2015
0.3222,2015
0.3223,2015
0.3224,2016
0.3225,2019
0.3226,2023
0.3227,2026
0.3228,2029
0.3229,2030
0.323,2029
0.3231,2028
0.3232,2027
0.3233,2022
0.3234,2018
0.3235,2011
0.3236,2006
0.3237,2001
0.3238,1997
0.3239,1995
0.324,1993
0.3241,1993
0.3242,1993
0.3243,1995
0.3244,1999
0.3245,2003
0.3246,2007
0.3247,2012
0.3248,2017
0.3249,2019
0.325,2020
0.3251,2019
0.3252,2019
0.3253,2017
0.3254,2012
0.3255,2008
0.3256,2003
0.3257,2000
0.3258,1997
0.3259,1995
0.326,1993
0.3261,1994
0.3262,1996
0.3263,2000
0.3264,2003
0.3265,2007
0.3266,2012
0.3267,2017
0.3268,2022
0.3269,2024
0.327,2025
0.3271,2024
0.3272,2023
0.3273,2020
0.3274,2015
0.3275,2011
0.3276,2007
0.3277,2004
0.3278,2002
0.3279,2001
0.328,2001
0.3281,2001
0.3282,2002
0.3283,2005
0.3284,2009
0.3285,2013
0.3286,2017
0.3287,2025
0.3288,2028
0.3289,2034
0.329,2035
0.3291,2035
0.3292,2034
0.3293,2032
0.3294,2027
0.3295,2021
0.3296,2017
0.3297,2013
0.3298,2012
0.3299,2012
0.33,2010
0.3301,2010
0.3302,2012
0.3303,2015
0.3304,2018
0.3305,2024
0.3306,2029
0.3307,2035
0.3308,2039
0.3309,2041
0.331,2042
0.3311,2042
0.3312,2040
0.3313,2039
0.3314,2035
0.3315,2028
0.3316,2024
0.3317,2020
0.3318,2018
0.3319,2017
0.332,2017
0.3321,2017
0.3322,2018
0.3323,2020
0.3324,2025
0.3325,2029
0.3326,2034
0.3327,2040
0.3328,2044
0.3329,2047
0.333,2048
0.3331,2048
0.3332,2046
0.3333,2046
0.3334,2042
0.3335,2037
0.3336,2033
0.3337,2031
0.3338,2029
0.3339,2028
0.334,2026
0.3341,2024
0.3342,2026
0.3343,2028
0.3344,2034
0.3345,2040
0.3346,2045
0.3347,2052
0.3348,2056
0.3349,2059
0.335,2061
0.3351,2060
0.3352,2060
0.3353,2057
0.3354,2054
0.3355,2048
0.3356,2043
0.3357,2040
0.3358,2040
0.3359,2037
0.336,2035
0.3361,2035
0.3362,2036
0.3363,2041
0.3364,2045
0.3365,2050
0.3366,2055
0.3367,2062
0.3368,2065
0.3369,2067
0.337,2068
0.3371,2069
0.3372,2069
0.3373,2067
0.3374,2064
0.3375,2057
0.3376,2053
0.3377,2051
0.3378,2048
0.3379,2048
0.338,2048
0.3381,2048
0.3382,2050
0.3383,2054
0.3384,2057
0.3385,2062
0.3386,2067
0.3387,2072
0.3388,2077
0.3389,2080
0.339,2081
0.3391,2082
0.3392,2082
0.3393,2080
0.3394,2077
0.3395,2072
0.3396,2067
0.3397,2065
0.3398,2062
0.3399,2061
0.34,2061
0.3401,2061
0.3402,2063
0.3403,2068
0.3404,2073
0.3405,2078
0.3406,2082
0.3407,2088
0.3408,2092
0.3409,2096
0.341,2096
0.3411,2096
0.3412,2096
0.3413,2093
0.3414,2090
0.3415,2085
0.3416,2082
0.3417,2079
0.3418,2078
0.3419,2077
0.342,2076
0.3421,2076
0.3422,2079
0.3423,2083
0.3424,2087
0.3425,2092
0.3426,2096
0.3427,2102
0.3428,2106
0.3429,2108
0.343,2108
0.3431,2107
0.3432,2108
0.3433,2105
0.3434,2102
0.3435,2097
0.3436,2092
0.3437,2090
0.3438,2086
0.3439,2086
0.344,2084
0.3441,2083
0.3442,2084
0.3443,2086
0.3444,2091
0.3445,2094
0.3446,2099
0.3447,2103
0.3448,2107
0.3449,2108
0.345,2108
0.3451,2107
0.3452,2106
0.3453,2103
0.3454,2097
0.3455,2089
0.3456,2083
0.3457,2080
0.3458,2077
0.3459,2074
0.346,2072
0.3461,2069
0.3462,2068
0.3463,2070
0.3464,2073
0.3465,2075
0.3466,2078
0.3467,2082
0.3468,2083
0.3469,2086
0.347,2084
0.3471,2082
0.3472,2079
0.3473,2075
0.3474,2069
0.3475,2061
0.3476,2054
0.3477,2049
0.3478,2045
0.3479,2041
0.348,2038
0.3481,2033
0.3482,2035
0.3483,2036
0.3484,2039
0.3485,2041
0.3486,2045
0.3487,2048
0.3488,2050
0.3489,2051
0.349,2050
0.3491,2048
0.3492,2045
0.3493,2042
0.3494,2036
0.3495,2030
0.3496,2023
0.3497,2020
0.3498,2015
0.3499,2012
0.35,2009
0.3501,2007
0.3502,2008
0.3503,2011
0.3504,2013
0.3505,2017
0.3506,2021
0.3507,2026
0.3508,2028
0.3509,2029
0.351,2029
0.3511,2028
0.3512,2027
0.3513,2023
0.3514,2018
0.3515,2012
0.3516,2007
0.3517,2005
0.3518,2001
0.3519,1999
0.352,1997
0.3521,1996
0.3522,1998
0.3523,2000
0.3524,2004
0.3525,2008
0.3526,2012
0.3527,2017
0.3528,2021
0.3529,2022
0.353,2022
0.3531,2023
0.3532,2023
0.3533,2019
0.3534,2016
0.3535,2011
0.3536,2006
0.3537,2004
0.3538,2001
0.3539,1999
0.354,1998
0.3541,1997
0.3542,2001
0.3543,2004
0.3544,2008
0.3545,2011
0.3546,2015
0.3547,2020
0.3548,2023
0.3549,2025
0.355,2027
0.3551,2025
0.3552,2025
0.3553,2022
0.3554,2018
0.3555,2012
0.3556,2008
0.3557,2005
0.3558,2003
0.3559,2003
0.356,2001
0.3561,2000
0.3562,2003
0.3563,2005
0.3564,2008
0.3565,2013
0.3566,2017
0.3567,2024
0.3568,2026
0.3569,2028
0.357,2028
0.3571,2028
0.3572,2029
0.3573,2026
0.3574,2023
0.3575,2017
0.3576,2012
0.3577,2010
0.3578,2008
0.3579,2006
0.358,2005
0.3581,2004
0.3582,2006
0.3583,2010
0.3584,2014
0.3585,2017
0.3586,2022
0.3587,2028
0.3588,2032
0.3589,2034
0.359,2033
0.3591,2034
0.3592,2035
0.3593,2033
0.3594,2029
0.3595,2022
0.3596,2017
0.3597,2015
0.3598,2012
0.3599,2012
0.36,2011
0.3601,2010
0.3602,2012
0.3603,2014
0.3604,2019
0.3605,2023
0.3606,2028
0.3607,2034
0.3608,2035
0.3609,2038
0.361,2037
0.3611,2038
0.3612,2038
0.3613,2035
0.3614,2032
0.3615,2026
0.3616,2021
0.3617,2019
0.3618,2016
0.3619,2014
0.362,2012
0.3621,2013
0.3622,2016
0.3623,2018
0.3624,2023
0.3625,2027
0.3626,2031
0.3627,2036
0.3628,2039
0.3629,2042
0.363,2041
0.3631,2042
0.3632,2043
0.3633,2040
0.3634,2036
0.3635,2030
0.3636,2027
0.3637,2024
0.3638,2021
0.3639,2020
0.364,2020
0.3641,2019
0.3642,2020
0.3643,2022
0.3644,2025
0.3645,2028
0.3646,2034
0.3647,2039
0.3648,2042
0.3649,2045
0.365,2044
0.3651,2044
0.3652,2046
0.3653,2043
0.3654,2040
0.3655,2033
0.3656,2028
0.3657,2026
0.3658,2022
0.3659,2021
0.366,2020
0.3661,2019
0.3662,2022
0.3663,2024
0.3664,2028
0.3665,2031
0.3666,2036
0.3667,2040
0.3668,2044
0.3669,2046
0.367,2047
0.3671,2047
0.3672,2048
0.3673,2044
0.3674,2041
0.3675,2035
0.3676,2030
0.3677,2028
0.3678,2026
0.3679,2026
0.368,2024
0.3681,2024
0.3682,2025
0.3683,2028
0.3684,2031
0.3685,2034
0.3686,2039
0.3687,2045
0.3688,2047
0.3689,2049
0.369,2050
0.3691,2050
0.3692,2051
0.3693,2049
0.3694,2045
0.3695,2039
0.3696,2035
0.3697,2032
0.3698,2030
0.3699,2028
0.37,2026
0.3701,2026
0.3702,2028
0.3703,2030
0.3704,2034
0.3705,2037
0.3706,2042
0.3707,2047
0.3708,2051
0.3709,2053
0.371,2054
0.3711,2053
0.3712,2054
0.3713,2052
0.3714,2047
0.3715,2042
0.3716,2036
0.3717,2035
0.3718,2032
0.3719,2030
0.372,2028
0.3721,2027
0.3722,2030
0.3723,2031
0.3724,2033
0.3725,2037
0.3726,2043
0.3727,2049
0.3728,2052
0.3729,2055
0.373,2055
0.3731,2054
0.3732,2055
0.3733,2052
0.3734,2048
0.3735,2042
0.3736,2038
0.3737,2035
0.3738,2032
0.3739,2030
0.374,2029
0.3741,2027
0.3742,2029
0.3743,2032
0.3744,2036
0.3745,2039
0.3746,2043
0.3747,2047
0.3748,2051
0.3749,2053
0.375,2053
0.3751,2054
0.3752,2053
0.3753,2051
0.3754,2046
0.3755,2040
0.3756,2036
0.3757,2035
0.3758,2031
0.3759,2030
0.376,2029
0.3761,2029
0.3762,2031
0.3763,2034
0.3764,2038
0.3765,2042
0.3766,2045
0.3767,2053
0.3768,2055
0.3769,2057
0.377,2057
0.3771,2056
0.3772,2058
0.3773,2054
0.3774,2051
0.3775,2045
0.3776,2041
0.3777,2040
0.3778,2037
0.3779,2036
0.378,2034
0.3781,2034
0.3782,2036
0.3783,2038
0.3784,2041
0.3785,2045
0.3786,2048
0.3787,2055
0.3788,2058
0.3789,2058
0.379,2058
0.3791,2057
0.3792,2057
0.3793,2056
0.3794,2054
0.3795,2049
0.3796,2042
0.3797,2040
0.3798,2038
0.3799,2038
0.38,2036
0.3801,2035
0.3802,2035
0.3803,2037
0.3804,2042
0.3805,2045
0.3806,2051
0.3807,2055
0.3808,2060
0.3809,2061
0.381,2062
0.3811,2061
0.3812,2062
0.3813,2058
0.3814,2055
0.3815,2051
0.3816,2046
0.3817,2044
0.3818,2041
0.3819,2039
0.382,2038
0.3821,2036
0.3822,2038
0.3823,2040
0.3824,2043
0.3825,2047
0.3826,2051
0.3827,2056
0.3828,2059
0.3829,2060
0.383,2062
0.3831,2061
0.3832,2062
0.3833,2059
0.3834,2057
0.3835,2052
0.3836,2046
0.3837,2044
0.3838,2042
0.3839,2040
0.384,2038
0.3841,2038
0.3842,2040
0.3843,2041
0.3844,2045
0.3845,2049
0.3846,2054
0.3847,2059
0.3848,2062
0.3849,2063
0.385,2063
0.3851,2065
0.3852,2065
0.3853,2061
0.3854,2058
0.3855,2053
0.3856,2049
0.3857,2046
0.3858,2043
0.3859,2041
0.386,2039
0.3861,2038
0.3862,2039
0.3863,2041
0.3864,2044
0.3865,2048
0.3866,2051
0.3867,2056
0.3868,2058
0.3869,2059
0.387,2059
0.3871,2060
0.3872,2062
0.3873,2058
0.3874,2056
0.3875,2052
0.3876,2049
0.3877,2046
0.3878,2044
0.3879,2040
0.388,2039
0.3881,2039
0.3882,2040
0.3883,2041
0.3884,2043
0.3885,2047
0.3886,2052
0.3887,2058
0.3888,2060
0.3889,2061
0.389,2062
0.3891,2063
0.3892,2064
0.3893,2060
0.3894,2056
0.3895,2052
0.3896,2048
0.3897,2045
0.3898,2041
0.3899,2038
0.39,2036
0.3901,2034
0.3902,2037
0.3903,2038
0.3904,2041
0.3905,2045
0.3906,2051
0.3907,2055
0.3908,2059
0.3909,2061
0.391,2062
0.3911,2062
0.3912,2061
0.3913,2060
0.3914,2057
0.3915,2053
0.3916,2048
0.3917,2046
0.3918,2041
0.3919,2039
0.392,2037
0.3921,2038
0.3922,2040
0.3923,2041
0.3924,2043
0.3925,2048
0.3926,2052
0.3927,2057
0.3928,2061
0.3929,2063
0.393,2063
0.3931,2065
0.3932,2066
0.3933,2066
0.3934,2062
0.3935,2057
0.3936,2052
0.3937,2048
0.3938,2047
0.3939,2044
0.394,2042
0.3941,2041
0.3942,2042
0.3943,2043
0.3944,2046
0.3945,2050
0.3946,2056
0.3947,2060
0.3948,2063
0.3949,2065
0.395,2065
0.3951,2066
0.3952,2066
0.3953,2065
0.3954,2062
0.3955,2056
0.3956,2052
0.3957,2050
0.3958,2046
0.3959,2044
0.396,2043
0.3961,2042
0.3962,2043
0.3963,2044
0.3964,2045
0.3965,2050
0.3966,2056
0.3967,2060
0.3968,2064
0.3969,2066
0.397,2066
0.3971,2067
0.3972,2067
0.3973,2066
0.3974,2062
0.3975,2057
0.3976,2053
0.3977,2050
0.3978,2047
0.3979,2044
0.398,2043
0.3981,2042
0.3982,2043
0.3983,2045
0.3984,2047
0.3985,2051
0.3986,2056
0.3987,2060
0.3988,2064
0.3989,2065
0.399,2067
0.3991,2067
0.3992,2069
0.3993,2067
0.3994,2064
0.3995,2059
0.3996,2056
0.3997,2052
0.3998,2049
0.3999,2046
0.4,2044
0.4001,2044
0.4002,2044
0.4003,2045
0.4004,2046
0.4005,2050
0.4006,2055
0.4007,2058
0.4008,2062
0.4009,2063
0.401,2064
0.4011,2065
0.4012,2064
0.4013,2064
0.4014,2060
0.4015,2056
0.4016,2052
0.4017,2048
0.4018,2046
0.4019,2044
0.402,2043
0.4021,2042
0.4022,2044
0.4023,2045
0.4024,2048
0.4025,2052
0.4026,2059
0.4027,2065
0.4028,2069
0.4029,2070
0.403,2072
0.4031,2074
0.4032,2074
0.4033,2073
0.4034,2069
0.4035,2065
0.4036,2061
0.4037,2058
0.4038,2057
0.4039,2054
0.404,2053
0.4041,2054
0.4042,2054
0.4043,2055
0.4044,2057
0.4045,2062
0.4046,2066
0.4047,2069
0.4048,2074
0.4049,2075
0.405,2076
0.4051,2078
0.4052,2078
0.4053,2077
0.4054,2072
0.4055,2068
0.4056,2062
0.4057,2060
0.4058,2056
0.4059,2053
0.406,2051
0.4061,2049
0.4062,2049
0.4063,2049
0.4064,2051
0.4065,2054
0.4066,2059
0.4067,2063
0.4068,2065
0.4069,2067
0.407,2068
0.4071,2070
0.4072,2070
0.4073,2069
0.4074,2064
0.4075,2060
0.4076,2056
0.4077,2052
0.4078,2050
0.4079,2046
0.408,2045
0.4081,2045
0.4082,2045
0.4083,2049
0.4084,2051
0.4085,2054
0.4086,2058
0.4087,2062
0.4088,2065
0.4089,2065
0.409,2067
0.4091,2068
0.4092,2069
0.4093,2067
0.4094,2065
0.4095,2060
0.4096,2057
0.4097,2053
0.4098,2051
0.4099,2048
0.41,2047
0.4101,2046
0.4102,2047
0.4103,2048
0.4104,2051
0.4105,2054
0.4106,2059
0.4107,2063
0.4108,2066
0.4109,2068
0.411,2068
0.4111,2069
0.4112,2070
0.4113,2068
0.4114,2066
0.4115,2062
0.4116,2059
0.4117,2055
0.4118,2052
0.4119,2050
0.412,2048
0.4121,2048
0.4122,2045
0.4123,2048
0.4124,2050
0.4125,2052
0.4126,2057
0.4127,2062
0.4128,2065
0.4129,2067
0.413,2067
0.4131,2068
0.4132,2070
0.4133,2069
0.4134,2066
0.4135,2061
0.4136,2058
0.4137,2053
0.4138,2052
0.4139,2049
0.414,2049
0.4141,2048
0.4142,2048
0.4143,2049
0.4144,2051
0.4145,2054
0.4146,2060
0.4147,2063
0.4148,2067
0.4149,2069
0.415,2070
0.4151,2071
0.4152,2072
0.4153,2071
0.4154,2068
0.4155,2063
0.4156,2060
0.4157,2056
0.4158,2053
0.4159,2051
0.416,2049
0.4161,2049
0.4162,2048
0.4163,2048
0.4164,2050
0.4165,2053
0.4166,2056
0.4167,2060
0.4168,2061
0.4169,2061
0.417,2059
0.4171,2057
0.4172,2053
0.4173,2046
0.4174,2037
0.4175,2029
0.4176,2022
0.4177,2016
0.4178,2012
0.4179,2010
0.418,2009
0.4181,2009
0.4182,2012
0.4183,2016
0.4184,2021
0.4185,2028
0.4186,2038
0.4187,2045
0.4188,2053
0.4189,2057
0.419,2062
0.4191,2069
0.4192,2079
0.4193,2092
0.4194,2108
0.4195,2131
0.4196,2159
0.4197,2189
0.4198,2220
0.4199,2250
0.42,2278
0.4201,2305
0.4202,2327
0.4203,2350
0.4204,2370
0.4205,2387
0.4206,2403
0.4207,2420
0.4208,2434
0.4209,2447
0.421,2458
0.4211,2467
0.4212,2473
0.4213,2473
0.4214,2468
0.4215,2455
0.4216,2438
0.4217,2416
0.4218,2388
0.4219,2354
0.422,2316
0.4221,2275
0.4222,2235
0.4223,2196
0.4224,2162
0.4225,2134
0.4226,2115
0.4227,2103
0.4228,2097
0.4229,2091
0.423,2086
0.4231,2083
0.4232,2080
0.4233,2076
0.4234,2071
0.4235,2065
0.4236,2058
0.4237,2053
0.4238,2046
0.4239,2042
0.424,2037
0.4241,2033
0.4242,2032
0.4243,2031
0.4244,2030
0.4245,2033
0.4246,2036
0.4247,2039
0.4248,2041
0.4249,2041
0.425,2040
0.4251,2040
0.4252,2040
0.4253,2037
0.4254,2034
0.4255,2030
0.4256,2026
0.4257,2022
0.4258,2018
0.4259,2015
0.426,2012
0.4261,2010
0.4262,2008
0.4263,2009
0.4264,2010
0.4265,2013
0.4266,2018
0.4267,2022
0.4268,2026
0.4269,2027
0.427,2030
0.4271,2031
0.4272,2032
0.4273,2031
0.4274,2028
0.4275,2024
0.4276,2019
0.4277,2017
0.4278,2015
0.4279,2012
0.428,2009
0.4281,2010
0.4282,2010
0.4283,2009
0.4284,2011
0.4285,2014
0.4286,2020
0.4287,2025
0.4288,2028
0.4289,2029
0.429,2030
0.4291,2031
0.4292,2034
0.4293,2034
0.4294,2031
0.4295,2028
0.4296,2025
0.4297,2022
0.4298,2018
0.4299,2016
0.43,2014
0.4301,2014
0.4302,2014
0.4303,2015
0.4304,2017
0.4305,2021
0.4306,2027
0.4307,2032
0.4308,2036
0.4309,2037
0.431,2036
0.4311,2039
0.4312,2041
0.4313,2040
0.4314,2037
0.4315,2033
0.4316,2030
0.4317,2026
0.4318,2024
0.4319,2023
0.432,2021
0.4321,2019
0.4322,2019
0.4323,2021
0.4324,2024
0.4325,2028
0.4326,2034
0.4327,2038
0.4328,2042
0.4329,2044
0.433,2045
0.4331,2046
0.4332,2048
0.4333,2047
0.4334,2044
0.4335,2041
0.4336,2038
0.4337,2035
0.4338,2032
0.4339,2030
0.434,2028
0.4341,2028
0.4342,2028
0.4343,2029
0.4344,2031
0.4345,2035
0.4346,2040
0.4347,2045
0.4348,2050
0.4349,2052
0.435,2055
0.4351,2057
0.4352,2057
0.4353,2058
0.4354,2055
0.4355,2051
0.4356,2048
0.4357,2043
0.4358,2040
0.4359,2038
0.436,2035
0.4361,2037
0.4362,2037
0.4363,2039
0.4364,2041
0.4365,2045
0.4366,2051
0.4367,2055
0.4368,2060
0.4369,2061
0.437,2063
0.4371,2065
0.4372,2067
0.4373,2066
0.4374,2064
0.4375,2061
0.4376,2059
0.4377,2055
0.4378,2053
0.4379,2050
0.438,2049
0.4381,2049
0.4382,2049
0.4383,2050
0.4384,2051
0.4385,2056
0.4386,2061
0.4387,2067
0.4388,2070
0.4389,2073
0.439,2073
0.4391,2075
0.4392,2077
0.4393,2075
0.4394,2072
0.4395,2068
0.4396,2066
0.4397,2063
0.4398,2061
0.4399,2059
0.44,2058
0.4401,2059
0.4402,2059
0.4403,2060
0.4404,2062
0.4405,2067
0.4406,2073
0.4407,2077
0.4408,2082
0.4409,2085
0.441,2086
0.4411,2089
0.4412,2090
0.4413,2090
0.4414,2087
0.4415,2084
0.4416,2083
0.4417,2081
0.4418,2079
0.4419,2076
0.442,2076
0.4421,2077
0.4422,2076
0.4423,2079
0.4424,2081
0.4425,2086
0.4426,2092
0.4427,2097
0.4428,2101
0.4429,2103
0.443,2106
0.4431,2109
0.4432,2109
0.4433,2108
0.4434,2105
0.4435,2102
0.4436,2100
0.4437,2097
0.4438,2095
0.4439,2092
0.444,2090
0.4441,2090
0.4442,2091
0.4443,2092
0.4444,2094
0.4445,2098
0.4446,2103
0.4447,2108
0.4448,2113
0.4449,2115
0.445,2116
0.4451,2117
0.4452,2118
0.4453,2119
0.4454,2115
0.4455,2112
0.4456,2109
0.4457,2105
0.4458,2103
0.4459,2100
0.446,2099
0.4461,2099
0.4462,2099
0.4463,2100
0.4464,2100
0.4465,2103
0.4466,2108
0.4467,2111
0.4468,2113
0.4469,2114
0.447,2116
0.4471,2116
0.4472,2115
0.4473,2113
0.4474,2108
0.4475,2104
0.4476,2099
0.4477,2094
0.4478,2089
0.4479,2085
0.448,2082
0.4481,2079
0.4482,2078
0.4483,2076
0.4484,2076
0.4485,2078
0.4486,2082
0.4487,2083
0.4488,2084
0.4489,2084
0.449,2083
0.4491,2082
0.4492,2081
0.4493,2078
0.4494,2070
0.4495,2066
0.4496,2060
0.4497,2056
0.4498,2052
0.4499,2048
0.45,2044
0.4501,2041
0.4502,2037
0.4503,2035
0.4504,2037
0.4505,2037
0.4506,2039
0.4507,2043
0.4508,2044
0.4509,2043
0.451,2041
0.4511,2042
0.4512,2040
0.4513,2039
0.4514,2033
0.4515,2028
0.4516,2023
0.4517,2020
0.4518,2015
0.4519,2011
0.452,2008
0.4521,2005
0.4522,2003
0.4523,2003
0.4524,2003
0.4525,2007
0.4526,2011
0.4527,2015
0.4528,2017
0.4529,2017
0.453,2016
0.4531,2018
0.4532,2016
0.4533,2015
0.4534,2011
0.4535,2006
0.4536,2002
0.4537,1999
0.4538,1997
0.4539,1993
0.454,1990
0.4541,1989
0.4542,1987
0.4543,1988
0.4544,1989
0.4545,1993
0.4546,1998
0.4547,2003
0.4548,2005
0.4549,2008
0.455,2009
0.4551,2010
0.4552,2012
0.4553,2010
0.4554,2007
0.4555,2003
0.4556,1999
0.4557,1996
0.4558,1994
0.4559,1992
0.456,1990
0.4561,1989
0.4562,1988
0.4563,1989
0.4564,1991
0.4565,1996
0.4566,2001
0.4567,2005
0.4568,2008
0.4569,2011
0.457,2010
0.4571,2013
0.4572,2014
0.4573,2012
0.4574,2009
0.4575,2005
0.4576,2001
0.4577,1999
0.4578,1996
0.4579,1993
0.458,1993
0.4581,1994
0.4582,1994
0.4583,1996
0.4584,1997
0.4585,2000
0.4586,2006
0.4587,2010
0.4588,2013
0.4589,2014
0.459,2015
0.4591,2017
0.4592,2018
0.4593,2018
0.4594,2014
0.4595,2012
0.4596,2009
0.4597,2004
0.4598,2002
0.4599,1999
0.46,1999
0.4601,1997
0.4602,1998
0.4603,1999
0.4604,2001
0.4605,2003
0.4606,2011
0.4607,2015
0.4608,2019
0.4609,2022
0.461,2023
0.4611,2026
0.4612,2024
0.4613,2023
0.4614,2019
0.4615,2016
0.4616,2011
0.4617,2009
0.4618,2008
0.4619,2006
0.462,2006
0.4621,2005
0.4622,2005
0.4623,2005
0.4624,2009
0.4625,2012
0.4626,2017
0.4627,2022
0.4628,2025
0.4629,2028
0.463,2028
0.4631,2032
0.4632,2032
0.4633,2031
0.4634,2027
0.4635,2023
0.4636,2021
0.4637,2017
0.4638,2014
0.4639,2013
0.464,2011
0.4641,2011
0.4642,2010
0.4643,2010
0.4644,2013
0.4645,2017
0.4646,2023
0.4647,2026
0.4648,2030
0.4649,2032
0.465,2033
0.4651,2035
0.4652,2035
0.4653,2033
0.4654,2029
0.4655,2024
0.4656,2022
0.4657,2019
0.4658,2015
0.4659,2013
0.466,2011
0.4661,2012
0.4662,2010
0.4663,2011
0.4664,2013
0.4665,2017
0.4666,2022
0.4667,2026
0.4668,2031
0.4669,2033
0.467,2035
0.4671,2038
0.4672,2038
0.4673,2035
0.4674,2032
0.4675,2029
0.4676,2026
0.4677,2022
0.4678,2019
0.4679,2015
0.468,2015
0.4681,2014
0.4682,2015
0.4683,2017
0.4684,2017
0.4685,2021
0.4686,2028
0.4687,2032
0.4688,2035
0.4689,2037
0.469,2038
0.4691,2040
0.4692,2040
0.4693,2038
0.4694,2035
0.4695,2031
0.4696,2027
0.4697,2025
0.4698,2022
0.4699,2020
0.47,2019
0.4701,2017
0.4702,2018
0.4703,2018
0.4704,2019
0.4705,2025
0.4706,2029
0.4707,2032
0.4708,2034
0.4709,2035
0.471,2037
0.4711,2040
0.4712,2040
0.4713,2039
0.4714,2036
0.4715,2033
0.4716,2031
0.4717,2027
0.4718,2024
0.4719,2022
0.472,2022
0.4721,2020
0.4722,2020
0.4723,2021
0.4724,2023
0.4725,2028
0.4726,2033
0.4727,2036
0.4728,2038
0.4729,2040
0.473,2041
0.4731,2043
0.4732,2043
0.4733,2042
0.4734,2038
0.4735,2035
0.4736,2032
0.4737,2028
0.4738,2025
0.4739,2022
0.474,2021
0.4741,2021
0.4742,2021
0.4743,2022
0.4744,2024
0.4745,2029
0.4746,2033
0.4747,2038
0.4748,2041
0.4749,2040
0.475,2044
0.4751,2045
0.4752,2046
0.4753,2044
0.4754,2041
0.4755,2038
0.4756,2035
0.4757,2032
0.4758,2029
0.4759,2027
0.476,2025
0.4761,2025
0.4762,2025
0.4763,2026
0.4764,2028
0.4765,2032
0.4766,2036
0.4767,2041
0.4768,2043
0.4769,2044
0.477,2045
0.4771,2048
0.4772,2048
0.4773,2046
0.4774,2043
0.4775,2040
0.4776,2036
0.4777,2031
0.4778,2027
0.4779,2024
0.478,2024
0.4781,2023
0.4782,2024
0.4783,2025
0.4784,2026
0.4785,2031
0.4786,2037
0.4787,2041
0.4788,2045
0.4789,2046
0.479,2048
0.4791,2050
0.4792,2049
0.4793,2048
0.4794,2044
0.4795,2041
0.4796,2038
0.4797,2035
0.4798,2031
0.4799,2028
0.48,2026
0.4801,2025
0.4802,2026
0.4803,2026
0.4804,2029
0.4805,2034
0.4806,2039
0.4807,2044
0.4808,2047
0.4809,2048
0.481,2049
0.4811,2051
0.4812,2051
0.4813,2049
0.4814,2045
0.4815,2042
0.4816,2038
0.4817,2034
0.4818,2031
0.4819,2028
0.482,2028
0.4821,2028
0.4822,2027
0.4823,2028
0.4824,2031
0.4825,2036
0.4826,2041
0.4827,2047
0.4828,2051
0.4829,2052
0.483,2054
0.4831,2056
0.4832,2056
0.4833,2053
0.4834,2049
0.4835,2045
0.4836,2040
0.4837,2037
0.4838,2034
0.4839,2031
0.484,2030
0.4841,2030
0.4842,2031
0.4843,2032
0.4844,2034
0.4845,2038
0.4846,2043
0.4847,2047
0.4848,2050
0.4849,2052
0.485,2053
0.4851,2054
0.4852,2054
0.4853,2053
0.4854,2050
0.4855,2045
0.4856,2042
0.4857,2039
0.4858,2035
0.4859,2032
0.486,2032
0.4861,2032
0.4862,2031
0.4863,2033
0.4864,2034
0.4865,2038
0.4866,2042
0.4867,2048
0.4868,2051
0.4869,2053
0.487,2054
0.4871,2055
0.4872,2055
0.4873,2053
0.4874,2049
0.4875,2045
0.4876,2041
0.4877,2040
0.4878,2036
0.4879,2034
0.488,2032
0.4881,2033
0.4882,2033
0.4883,2034
0.4884,2036
0.4885,2040
0.4886,2045
0.4887,2051
0.4888,2054
0.4889,2055
0.489,2057
0.4891,2059
0.4892,2058
0.4893,2056
0.4894,2054
0.4895,2049
0.4896,2046
0.4897,2043
0.4898,2040
0.4899,2037
0.49,2037
0.4901,2034
0.4902,2034
0.4903,2035
0.4904,2038
0.4905,2043
0.4906,2048
0.4907,2053
0.4908,2055
0.4909,2057
0.491,2058
0.4911,2060
0.4912,2060
0.4913,2058
0.4914,2055
0.4915,2051
0.4916,2048
0.4917,2043
0.4918,2042
0.4919,2039
0.492,2038
0.4921,2039
0.4922,2038
0.4923,2039
0.4924,2041
0.4925,2045
0.4926,2051
0.4927,2054
0.4928,2056
0.4929,2057
0.493,2059
0.4931,2061
0.4932,2060
0.4933,2057
0.4934,2056
0.4935,2052
0.4936,2049
0.4937,2045
0.4938,2042
0.4939,2039
0.494,2039
0.4941,2039
0.4942,2038
0.4943,2038
0.4944,2040
0.4945,2044
0.4946,2050
0.4947,2052
0.4948,2055
0.4949,2057
0.495,2057
0.4951,2060
0.4952,2059
0.4953,2058
0.4954,2054
0.4955,2051
0.4956,2046
0.4957,2043
0.4958,2040
0.4959,2039
0.496,2038
0.4961,2037
0.4962,2036
0.4963,2038
0.4964,2040
0.4965,2045
0.4966,2050
0.4967,2055
0.4968,2057
0.4969,2060
0.497,2062
0.4971,2063
0.4972,2062
0.4973,2061
0.4974,2057
0.4975,2054
0.4976,2050
0.4977,2045
0.4978,2041
0.4979,2039
0.498,2036
0.4981,2037
0.4982,2036
0.4983,2038
0.4984,2039
0.4985,2044
0.4986,2049
0.4987,2052
0.4988,2056
0.4989,2057
0.499,2058
0.4991,2061
0.4992,2061
0.4993,2059
0.4994,2056
0.4995,2052
0.4996,2048
0.4997,2045
0.4998,2042
0.4999,2040
0.5,2041
0.5001,2041
0.5002,2041
0.5003,2042
0.5004,2045
0.5005,2050
0.5006,2057
0.5007,2060
0.5008,2064
0.5009,2067
0.501,2070
0.5011,2070
0.5012,2071
0.5013,2070
0.5014,2066
0.5015,2063
0.5016,2060
0.5017,2057
0.5018,2055
0.5019,2053
0.502,2052
0.5021,2053
0.5022,2053
0.5023,2055
0.5024,2056
0.5025,2060
0.5026,2065
0.5027,2069
0.5028,2071
0.5029,2072
0.503,2075
0.5031,2076
0.5032,2076
0.5033,2073
0.5034,2069
0.5035,2065
0.5036,2060
0.5037,2057
0.5038,2054
0.5039,2051
0.504,2051
0.5041,2049
0.5042,2050
0.5043,2050
0.5044,2053
0.5045,2058
0.5046,2063
0.5047,2065
0.5048,2068
0.5049,2068
0.505,2070
0.5051,2070
0.5052,2069
0.5053,2066
0.5054,2061
0.5055,2059
0.5056,2056
0.5057,2052
0.5058,2049
0.5059,2047
0.506,2045
0.5061,2044
0.5062,2045
0.5063,2046
0.5064,2049
0.5065,2054
0.5066,2059
0.5067,2062
0.5068,2064
0.5069,2066
0.507,2067
0.5071,2068
0.5072,2068
0.5073,2065
0.5074,2061
0.5075,2059
0.5076,2054
0.5077,2050
0.5078,2046
0.5079,2045
0.508,2043
0.5081,2043
0.5082,2043
0.5083,2044
0.5084,2046
0.5085,2051
0.5086,2057
0.5087,2062
0.5088,2064
0.5089,2066
0.509,2067
0.5091,2067
0.5092,2066
0.5093,2064
0.5094,2060
0.5095,2057
0.5096,2054
0.5097,2051
0.5098,2049
0.5099,2045
0.51,2045
0.5101,2044
0.5102,2044
0.5103,2045
0.5104,2048
0.5105,2054
0.5106,2058
0.5107,2062
0.5108,2064
0.5109,2066
0.511,2068
0.5111,2070
0.5112,2069
0.5113,2067
0.5114,2062
0.5115,2059
0.5116,2057
0.5117,2052
0.5118,2050
0.5119,2049
0.512,2047
0.5121,2048
0.5122,2047
0.5123,2048
0.5124,2051
0.5125,2057
0.5126,2060
0.5127,2063
0.5128,2064
0.5129,2066
0.513,2069
0.5131,2068
0.5132,2069
0.5133,2067
0.5134,2063
0.5135,2060
0.5136,2056
0.5137,2053
0.5138,2049
0.5139,2048
0.514,2048
0.5141,2044
0.5142,2045
0.5143,2045
0.5144,2045
0.5145,2048
0.5146,2050
0.5147,2051
0.5148,2048
0.5149,2044
0.515,2041
0.5151,2037
0.5152,2031
0.5153,2026
0.5154,2021
0.5155,2016
0.5156,2012
0.5157,2010
0.5158,2010
0.5159,2010
0.516,2013
0.5161,2017
0.5162,2020
0.5163,2023
0.5164,2029
0.5165,2036
0.5166,2043
0.5167,2054
0.5168,2066
0.5169,2084
0.517,2110
0.5171,2137
0.5172,2170
0.5173,2201
0.5174,2230
0.5175,2258
0.5176,2279
0.5177,2299
0.5178,2317
0.5179,2334
0.518,2349
0.5181,2363
0.5182,2375
0.5183,2389
0.5184,2403
0.5185,2422
0.5186,2440
0.5187,2455
0.5188,2466
0.5189,2474
0.519,2478
0.5191,2475
0.5192,2466
0.5193,2447
0.5194,2419
0.5195,2388
0.5196,2347
0.5197,2303
0.5198,2261
0.5199,2219
0.52,2180
0.5201,2143
0.5202,2114
0.5203,2094
0.5204,2082
0.5205,2077
0.5206,2075
0.5207,2073
0.5208,2071
0.5209,2071
0.521,2071
0.5211,2069
0.5212,2066
0.5213,2061
0.5214,2055
0.5215,2049
0.5216,2044
0.5217,2038
0.5218,2032
0.5219,2028
0.522,2026
0.5221,2023
0.5222,2022
0.5223,2021
0.5224,2023
0.5225,2027
0.5226,2030
0.5227,2032
0.5228,2033
0.5229,2034
0.523,2036
0.5231,2035
0.5232,2032
0.5233,2029
0.5234,2025
0.5235,2022
0.5236,2017
0.5237,2013
0.5238,2012
0.5239,2008
0.524,2008
0.5241,2007
0.5242,2008
0.5243,2009
0.5244,2011
0.5245,2017
0.5246,2020
0.5247,2024
0.5248,2026
0.5249,2026
0.525,2029
0.5251,2030
0.5252,2029
0.5253,2026
0.5254,2021
0.5255,2019
0.5256,2015
0.5257,2012
0.5258,2009
0.5259,2005
0.526,2006
0.5261,2007
0.5262,2006
0.5263,2008
0.5264,2012
0.5265,2017
0.5266,2022
0.5267,2026
0.5268,2028
0.5269,2030
0.527,2032
0.5271,2034
0.5272,2032
0.5273,2028
0.5274,2025
0.5275,2023
0.5276,2019
0.5277,2014
0.5278,2010
0.5279,2007
0.528,2009
0.5281,2009
0.5282,2010
0.5283,2011
0.5284,2014
0.5285,2020
0.5286,2024
0.5287,2028
0.5288,2030
0.5289,2033
0.529,2036
0.5291,2037
0.5292,2037
0.5293,2034
0.5294,2031
0.5295,2029
0.5296,2024
0.5297,2022
0.5298,2020
0.5299,2019
0.53,2020
0.5301,2019
0.5302,2020
0.5303,2021
0.5304,2024
0.5305,2030
0.5306,2035
0.5307,2039
0.5308,2041
0.5309,2042
0.531,2045
0.5311,2044
0.5312,2044
0.5313,2041
0.5314,2038
0.5315,2036
0.5316,2033
0.5317,2029
0.5318,2027
0.5319,2026
0.532,2026
0.5321,2025
0.5322,2026
0.5323,2028
0.5324,2030
0.5325,2035
0.5326,2041
0.5327,2045
0.5328,2048
0.5329,2050
0.533,2052
0.5331,2055
0.5332,2054
0.5333,2051
0.5334,2047
0.5335,2043
0.5336,2041
0.5337,2039
0.5338,2035
0.5339,2035
0.534,2034
0.5341,2035
0.5342,2035
0.5343,2037
0.5344,2040
0.5345,2047
0.5346,2052
0.5347,2057
0.5348,2058
0.5349,2061
0.535,2064
0.5351,2065
0.5352,2064
0.5353,2061
0.5354,2057
0.5355,2056
0.5356,2052
0.5357,2051
0.5358,2048
0.5359,2046
0.536,2048
0.5361,2047
0.5362,2046
0.5363,2048
0.5364,2051
0.5365,2056
0.5366,2061
0.5367,2066
0.5368,2068
0.5369,2072
0.537,2073
0.5371,2076
0.5372,2076
0.5373,2073
0.5374,2071
0.5375,2067
0.5376,2065
0.5377,2061
0.5378,2059
0.5379,2057
0.538,2059
0.5381,2058
0.5382,2060
0.5383,2061
0.5384,2064
0.5385,2071
0.5386,2076
0.5387,2081
0.5388,2084
0.5389,2085
0.539,2088
0.5391,2087
0.5392,2087
0.5393,2085
0.5394,2083
0.5395,2080
0.5396,2076
0.5397,2073
0.5398,2072
0.5399,2071
0.54,2073
0.5401,2073
0.5402,2073
0.5403,2076
0.5404,2079
0.5405,2086
0.5406,2090
0.5407,2095
0.5408,2097
0.5409,2099
0.541,2101
0.5411,2103
0.5412,2102
0.5413,2099
0.5414,2096
0.5415,2093
0.5416,2090
0.5417,2088
0.5418,2086
0.5419,2086
0.542,2087
0.5421,2087
0.5422,2088
0.5423,2089
0.5424,2092
0.5425,2098
0.5426,2102
0.5427,2106
0.5428,2108
0.5429,2108
0.543,2112
0.5431,2114
0.5432,2113
0.5433,2109
0.5434,2105
0.5435,2103
0.5436,2097
0.5437,2093
0.5438,2091
0.5439,2089
0.544,2090
0.5441,2088
0.5442,2088
0.5443,2089
0.5444,2092
0.5445,2097
0.5446,2100
0.5447,2103
0.5448,2103
0.5449,2103
0.545,2104
0.5451,2103
0.5452,2101
0.5453,2096
0.5454,2091
0.5455,2085
0.5456,2082
0.5457,2077
0.5458,2071
0.5459,2068
0.546,2067
0.5461,2064
0.5462,2063
0.5463,2063
0.5464,2065
0.5465,2069
0.5466,2072
0.5467,2073
0.5468,2072
0.5469,2072
0.547,2073
0.5471,2072
0.5472,2069
0.5473,2063
0.5474,2057
0.5475,2052
0.5476,2045
0.5477,2040
0.5478,2035
0.5479,2033
0.548,2029
0.5481,2029
0.5482,2028
0.5483,2028
0.5484,2029
0.5485,2033
0.5486,2037
0.5487,2039
0.5488,2041
0.5489,2041
0.549,2042
0.5491,2040
0.5492,2037
0.5493,2032
0.5494,2027
0.5495,2023
0.5496,2017
0.5497,2012
0.5498,2009
0.5499,2009
0.55,2008
0.5501,2006
0.5502,2005
0.5503,2006
0.5504,2009
0.5505,2014
0.5506,2017
0.5507,2020
0.5508,2021
0.5509,2023
0.551,2024
0.5511,2023
0.5512,2020
0.5513,2017
0.5514,2013
0.5515,2008
0.5516,2003
0.5517,2000
0.5518,1997
0.5519,1995
0.552,1995
0.5521,1995
0.5522,1996
0.5523,1997
0.5524,2002
0.5525,2008
0.5526,2012
0.5527,2015
0.5528,2017
0.5529,2018
0.553,2020
0.5531,2020
0.5532,2018
0.5533,2016
0.5534,2012
0.5535,2008
0.5536,2006
0.5537,2001
0.5538,1998
0.5539,1997
0.554,1996
0.5541,1997
0.5542,1998
0.5543,2000
0.5544,2004
0.5545,2010
0.5546,2014
0.5547,2017
0.5548,2019
0.5549,2021
0.555,2023
0.5551,2024
0.5552,2023
0.5553,2021
0.5554,2017
0.5555,2013
0.5556,2010
0.5557,2006
0.5558,2004
0.5559,2002
0.556,2003
0.5561,2001
0.5562,2003
0.5563,2005
0.5564,2009
0.5565,2015
0.5566,2019
0.5567,2022
0.5568,2024
0.5569,2026
0.557,2029
0.5571,2028
0.5572,2027
0.5573,2025
0.5574,2021
0.5575,2018
0.5576,2014
0.5577,2010
0.5578,2008
0.5579,2007
0.558,2006
0.5581,2008
0.5582,2009
0.5583,2010
0.5584,2014
0.5585,2020
0.5586,2023
0.5587,2026
0.5588,2030
0.5589,2031
0.559,2031
0.5591,2033
0.5592,2031
0.5593,2029
0.5594,2024
0.5595,2022
0.5596,2018
0.5597,2015
0.5598,2013
0.5599,2011
0.56,2012
0.5601,2013
0.5602,2014
0.5603,2017
0.5604,2020
0.5605,2025
0.5606,2031
0.5607,2034
0.5608,2034
0.5609,2037
0.561,2038
0.5611,2038
0.5612,2035
0.5613,2032
0.5614,2029
0.5615,2024
0.5616,2021
0.5617,2017
0.5618,2013
0.5619,2012
0.562,2012
0.5621,2013
0.5622,2013
0.5623,2015
0.5624,2020
0.5625,2026
0.5626,2031
0.5627,2034
0.5628,2036
0.5629,2038
0.563,2039
0.5631,2040
0.5632,2037
0.5633,2035
0.5634,2031
0.5635,2027
0.5636,2025
0.5637,2023
0.5638,2020
0.5639,2019
0.564,2018
0.5641,2019
0.5642,2019
0.5643,2020
0.5644,2024
0.5645,2029
0.5646,2034
0.5647,2037
0.5648,2040
0.5649,2041
0.565,2043
0.5651,2043
0.5652,2041
0.5653,2039
0.5654,2035
0.5655,2032
0.5656,2028
0.5657,2025
0.5658,2022
0.5659,2021
0.566,2021
0.5661,2020
0.5662,2021
0.5663,2023
0.5664,2027
0.5665,2030
0.5666,2036
0.5667,2040
0.5668,2040
0.5669,2043
0.567,2044
0.5671,2043
0.5672,2042
0.5673,2039
0.5674,2035
0.5675,2031
0.5676,2028
0.5677,2024
0.5678,2022
0.5679,2021
0.568,2020
0.5681,2020
0.5682,2021
0.5683,2022
0.5684,2027
0.5685,2032
0.5686,2037
0.5687,2039
0.5688,2043
0.5689,2045
0.569,2048
0.5691,2046
0.5692,2045
0.5693,2042
0.5694,2039
0.5695,2035
0.5696,2031
0.5697,2027
0.5698,2024
0.5699,2022
0.57,2020
0.5701,2022
0.5702,2022
0.5703,2024
0.5704,2028
0.5705,2032
0.5706,2038
0.5707,2040
0.5708,2043
0.5709,2044
0.571,2045
0.5711,2044
0.5712,2043
0.5713,2039
0.5714,2035
0.5715,2031
0.5716,2029
0.5717,2026
0.5718,2024
0.5719,2024
0.572,2025
0.5721,2023
0.5722,2023
0.5723,2026
0.5724,2031
0.5725,2037
0.5726,2042
0.5727,2045
0.5728,2048
0.5729,2049
0.573,2049
0.5731,2051
0.5732,2048
0.5733,2044
0.5734,2040
0.5735,2037
0.5736,2033
0.5737,2030
0.5738,2028
0.5739,2027
0.574,2027
0.5741,2026
0.5742,2025
0.5743,2029
0.5744,2034
0.5745,2040
0.5746,2044
0.5747,2046
0.5748,2049
0.5749,2050
0.575,2051
0.5751,2050
0.5752,2047
0.5753,2044
0.5754,2041
0.5755,2038
0.5756,2033
0.5757,2030
0.5758,2027
0.5759,2027
0.576,2027
0.5761,2027
0.5762,2026
0.5763,2031
0.5764,2036
0.5765,2040
0.5766,2044
0.5767,2048
0.5768,2050
0.5769,2053
0.577,2054
0.5771,2053
0.5772,2051
0.5773,2047
0.5774,2044
0.5775,2039
0.5776,2035
0.5777,2033
0.5778,2030
0.5779,2030
0.578,2029
0.5781,2030
0.5782,2030
0.5783,2033
0.5784,2037
0.5785,2043
0.5786,2047
0.5787,2049
0.5788,2052
0.5789,2055
0.579,2056
0.5791,2056
0.5792,2052
0.5793,2050
0.5794,2046
0.5795,2042
0.5796,2037
0.5797,2033
0.5798,2031
0.5799,2028
0.58,2030
0.5801,2030
0.5802,2030
0.5803,2034
0.5804,2037
0.5805,2045
0.5806,2049
0.5807,2052
0.5808,2054
0.5809,2056
0.581,2056
0.5811,2056
0.5812,2055
0.5813,2051
0.5814,2048
0.5815,2043
0.5816,2040
0.5817,2037
0.5818,2034
0.5819,2034
0.582,2034
0.5821,2034
0.5822,2035
0.5823,2040
0.5824,2044
0.5825,2049
0.5826,2053
0.5827,2055
0.5828,2058
0.5829,2061
0.583,2063
0.5831,2061
0.5832,2059
0.5833,2054
0.5834,2050
0.5835,2044
0.5836,2039
0.5837,2037
0.5838,2035
0.5839,2034
0.584,2035
0.5841,2033
0.5842,2035
0.5843,2038
0.5844,2042
0.5845,2047
0.5846,2054
0.5847,2058
0.5848,2059
0.5849,2061
0.585,2061
0.5851,2062
0.5852,2059
0.5853,2056
0.5854,2052
0.5855,2048
0.5856,2044
0.5857,2040
0.5858,2039
0.5859,2037
0.586,2039
0.5861,2038
0.5862,2040
0.5863,2042
0.5864,2048
0.5865,2052
0.5866,2057
0.5867,2059
0.5868,2061
0.5869,2063
0.587,2064
0.5871,2064
0.5872,2062
0.5873,2057
0.5874,2054
0.5875,2050
0.5876,2046
0.5877,2043
0.5878,2040
0.5879,2039
0.588,2039
0.5881,2039
0.5882,2040
0.5883,2042
0.5884,2048
0.5885,2053
0.5886,2057
0.5887,2060
0.5888,2062
0.5889,2066
0.589,2067
0.5891,2066
0.5892,2063
0.5893,2060
0.5894,2056
0.5895,2052
0.5896,2048
0.5897,2043
0.5898,2041
0.5899,2040
0.59,2039
0.5901,2040
0.5902,2040
0.5903,2043
0.5904,2049
0.5905,2054
0.5906,2058
0.5907,2062
0.5908,2065
0.5909,2065
0.591,2067
0.5911,2066
0.5912,2065
0.5913,2061
0.5914,2057
0.5915,2054
0.5916,2049
0.5917,2045
0.5918,2042
0.5919,2042
0.592,2041
0.5921,2041
0.5922,2043
0.5923,2046
0.5924,2053
0.5925,2058
0.5926,2061
0.5927,2064
0.5928,2065
0.5929,2068
0.593,2068
0.5931,2068
0.5932,2065
0.5933,2061
0.5934,2058
0.5935,2051
0.5936,2048
0.5937,2044
0.5938,2042
0.5939,2040
0.594,2041
0.5941,2041
0.5942,2041
0.5943,2044
0.5944,2052
0.5945,2056
0.5946,2062
0.5947,2064
0.5948,2066
0.5949,2069
0.595,2069
0.5951,2068
0.5952,2065
0.5953,2062
0.5954,2059
0.5955,2055
0.5956,2050
0.5957,2046
0.5958,2044
0.5959,2046
0.596,2044
0.5961,2043
0.5962,2045
0.5963,2048
0.5964,2053
0.5965,2058
0.5966,2063
0.5967,2066
0.5968,2069
0.5969,2072
0.597,2072
0.5971,2070
0.5972,2067
0.5973,2063
0.5974,2060
0.5975,2055
0.5976,2052
0.5977,2048
0.5978,2045
0.5979,2045
0.598,2044
0.5981,2045
0.5982,2045
0.5983,2049
0.5984,2054
0.5985,2060
0.5986,2063
0.5987,2065
0.5988,2066
0.5989,2066
0.599,2068
0.5991,2067
0.5992,2065
0.5993,2060
0.5994,2057
0.5995,2054
0.5996,2050
0.5997,2046
0.5998,2044
0.5999,2043
0.6,2042
0.6001,2042
0.6002,2043
0.6003,2045
0.6004,2050
0.6005,2056
0.6006,2061
0.6007,2065
0.6008,2067
0.6009,2069
0.601,2069
0.6011,2070
0.6012,2068
0.6013,2064
0.6014,2061
0.6015,2055
0.6016,2053
0.6017,2049
0.6018,2048
0.6019,2049
0.602,2048
0.6021,2051
0.6022,2051
0.6023,2055
0.6024,2060
0.6025,2066
0.6026,2071
0.6027,2073
0.6028,2076
0.6029,2079
0.603,2080
0.6031,2079
0.6032,2076
0.6033,2073
0.6034,2068
0.6035,2064
0.6036,2060
0.6037,2056
0.6038,2053
0.6039,2053
0.604,2054
0.6041,2053
0.6042,2055
0.6043,2058
0.6044,2063
0.6045,2070
0.6046,2073
0.6047,2076
0.6048,2077
0.6049,2079
0.605,2079
0.6051,2077
0.6052,2074
0.6053,2070
0.6054,2066
0.6055,2060
0.6056,2056
0.6057,2052
0.6058,2048
0.6059,2048
0.606,2049
0.6061,2048
0.6062,2049
0.6063,2052
0.6064,2058
0.6065,2062
0.6066,2067
0.6067,2068
0.6068,2069
0.6069,2072
0.607,2071
0.6071,2073
0.6072,2069
0.6073,2065
0.6074,2063
0.6075,2058
0.6076,2055
0.6077,2052
0.6078,2050
0.6079,2050
0.608,2048
0.6081,2049
0.6082,2049
0.6083,2052
0.6084,2057
0.6085,2063
0.6086,2068
0.6087,2070
0.6088,2072
0.6089,2074
0.609,2075
0.6091,2073
0.6092,2070
0.6093,2066
0.6094,2062
0.6095,2058
0.6096,2054
0.6097,2051
0.6098,2050
0.6099,2049
0.61,2048
0.6101,2049
0.6102,2049
0.6103,2052
0.6104,2058
0.6105,2061
0.6106,2066
0.6107,2068
0.6108,2070
0.6109,2073
0.611,2073
0.6111,2073
0.6112,2069
0.6113,2065
0.6114,2062
0.6115,2057
0.6116,2052
0.6117,2048
0.6118,2048
0.6119,2048
0.612,2049
0.6121,2049
0.6122,2050
0.6123,2052
0.6124,2057
0.6125,2061
0.6126,2066
0.6127,2068
0.6128,2071
0.6129,2074
0.613,2073
0.6131,2073
0.6132,2070
0.6133,2066
0.6134,2063
0.6135,2059
0.6136,2055
0.6137,2052
0.6138,2049
0.6139,2048
0.614,2049
0.6141,2048
0.6142,2048
0.6143,2052
0.6144,2058
0.6145,2063
0.6146,2067
0.6147,2070
0.6148,2071
0.6149,2074
0.615,2074
0.6151,2074
0.6152,2070
0.6153,2064
0.6154,2059
0.6155,2053
0.6156,2047
0.6157,2040
0.6158,2035
0.6159,2031
0.616,2025
0.6161,2020
0.6162,2016
0.6163,2013
0.6164,2014
0.6165,2016
0.6166,2017
0.6167,2019
0.6168,2022
0.6169,2025
0.617,2027
0.6171,2029
0.6172,2030
0.6173,2030
0.6174,2028
0.6175,2025
0.6176,2022
0.6177,2020
0.6178,2022
0.6179,2030
0.618,2045
0.6181,2069
0.6182,2099
0.6183,2132
0.6184,2173
0.6185,2210
0.6186,2246
0.6187,2276
0.6188,2301
0.6189,2325
0.619,2343
0.6191,2359
0.6192,2370
0.6193,2381
0.6194,2391
0.6195,2403
0.6196,2416
0.6197,2427
0.6198,2441
0.6199,2456
0.62,2465
0.6201,2474
0.6202,2480
0.6203,2483
0.6204,2481
0.6205,2469
0.6206,2446
0.6207,2414
0.6208,2377
0.6209,2337
0.621,2294
0.6211,2251
0.6212,2208
0.6213,2168
0.6214,2135
0.6215,2108
0.6216,2087
0.6217,2073
0.6218,2065
0.6219,2058
0.622,2054
0.6221,2051
0.6222,2049
0.6223,2048
0.6224,2051
0.6225,2052
0.6226,2054
0.6227,2053
0.6228,2053
0.6229,2055
0.623,2052
0.6231,2049
0.6232,2044
0.6233,2038
0.6234,2033
0.6235,2026
0.6236,2020
0.6237,2015
0.6238,2011
0.6239,2008
0.624,2007
0.6241,2006
0.6242,2006
0.6243,2008
0.6244,2012
0.6245,2015
0.6246,2019
0.6247,2021
0.6248,2023
0.6249,2025
0.625,2025
0.6251,2025
0.6252,2022
0.6253,2017
0.6254,2013
0.6255,2008
0.6256,2003
0.6257,2000
0.6258,1999
0.6259,1999
0.626,1998
0.6261,1999
0.6262,2000
0.6263,2004
0.6264,2011
0.6265,2016
0.6266,2020
0.6267,2022
0.6268,2025
0.6269,2025
0.627,2027
0.6271,2026
0.6272,2020
0.6273,2019
0.6274,2016
0.6275,2011
0.6276,2007
0.6277,2004
0.6278,2001
0.6279,2001
0.628,2001
0.6281,2002
0.6282,2004
0.6283,2007
0.6284,2012
0.6285,2019
0.6286,2025
0.6287,2026
0.6288,2030
0.6289,2033
0.629,2033
0.6291,2032
0.6292,2029
0.6293,2026
0.6294,2020
0.6295,2017
0.6296,2013
0.6297,2008
0.6298,2008
0.6299,2009
0.63,2008
0.6301,2010
0.6302,2011
0.6303,2016
0.6304,2020
0.6305,2027
0.6306,2031
0.6307,2034
0.6308,2035
0.6309,2039
0.631,2039
0.6311,2038
0.6312,2036
0.6313,2032
0.6314,2029
0.6315,2025
0.6316,2021
0.6317,2018
0.6318,2016
0.6319,2017
0.632,2015
0.6321,2018
0.6322,2019
0.6323,2025
0.6324,2030
0.6325,2035
0.6326,2038
0.6327,2042
0.6328,2044
0.6329,2045
0.633,2048
0.6331,2046
0.6332,2043
0.6333,2040
0.6334,2037
0.6335,2033
0.6336,2028
0.6337,2024
0.6338,2024
0.6339,2024
0.634,2023
0.6341,2023
0.6342,2025
0.6343,2030
0.6344,2038
0.6345,2042
0.6346,2048
0.6347,2050
0.6348,2054
0.6349,2056
0.635,2056
0.6351,2056
0.6352,2054
0.6353,2049
0.6354,2045
0.6355,2040
0.6356,2037
0.6357,2035
0.6358,2034
0.6359,2034
0.636,2033
0.6361,2034
0.6362,2036
0.6363,2041
0.6364,2048
0.6365,2053
0.6366,2058
0.6367,2059
0.6368,2061
0.6369,2063
0.637,2064
0.6371,2063
0.6372,2061
0.6373,2058
0.6374,2055
0.6375,2050
0.6376,2046
0.6377,2044
0.6378,2042
0.6379,2043
0.638,2044
0.6381,2045
0.6382,2045
0.6383,2050
0.6384,2056
0.6385,2061
0.6386,2065
0.6387,2070
0.6388,2073
0.6389,2075
0.639,2078
0.6391,2077
0.6392,2075
0.6393,2072
0.6394,2068
0.6395,2063
0.6396,2059
0.6397,2055
0.6398,2055
0.6399,2054
0.64,2054
0.6401,2055
0.6402,2058
0.6403,2063
0.6404,2068
0.6405,2073
0.6406,2078
0.6407,2084
0.6408,2086
0.6409,2089
0.641,2092
0.6411,2090
0.6412,2086
0.6413,2083
0.6414,2079
0.6415,2076
0.6416,2072
0.6417,2069
0.6418,2069
0.6419,2070
0.642,2071
0.6421,2071
0.6422,2074
0.6423,2079
0.6424,2084
0.6425,2091
0.6426,2096
0.6427,2099
0.6428,2101
0.6429,2104
0.643,2105
0.6431,2105
0.6432,2102
0.6433,2098
0.6434,2095
0.6435,2092
0.6436,2088
0.6437,2085
0.6438,2084
0.6439,2082
0.644,2083
0.6441,2083
0.6442,2085
0.6443,2089
0.6444,2094
0.6445,2098
0.6446,2103
0.6447,2105
0.6448,2107
0.6449,2109
0.645,2109
0.6451,2108
0.6452,2105
0.6453,2101
0.6454,2098
0.6455,2093
0.6456,2089
0.6457,2085
0.6458,2083
0.6459,2082
0.646,2081
0.6461,2081
0.6462,2081
0.6463,2084
0.6464,2088
0.6465,2091
0.6466,2094
0.6467,2096
0.6468,2098
0.6469,2099
0.647,2096
0.6471,2096
0.6472,2091
0.6473,2086
0.6474,2080
0.6475,2074
0.6476,2067
0.6477,2061
0.6478,2057
0.6479,2054
0.648,2052
0.6481,2050
0.6482,2049
0.6483,2053
0.6484,2056
0.6485,2060
0.6486,2062
0.6487,2063
0.6488,2063
0.6489,2062
0.649,2061
0.6491,2058
0.6492,2054
0.6493,2048
0.6494,2042
0.6495,2036
0.6496,2030
0.6497,2025
0.6498,2022
0.6499,2020
0.65,2019
0.6501,2019
0.6502,2018
0.6503,2021
0.6504,2024
0.6505,2029
0.6506,2031
0.6507,2032
0.6508,2035
0.6509,2035
0.651,2034
0.6511,2031
0.6512,2028
0.6513,2023
0.6514,2016
0.6515,2012
0.6516,2007
0.6517,2002
0.6518,2000
0.6519,2000
0.652,1997
0.6521,1998
0.6522,1999
0.6523,2003
0.6524,2007
0.6525,2013
0.6526,2015
0.6527,2017
0.6528,2020
0.6529,2022
0.653,2023
0.6531,2020
0.6532,2018
0.6533,2014
0.6534,2010
0.6535,2005
0.6536,2000
0.6537,1997
0.6538,1996
0.6539,1995
0.654,1994
0.6541,1994
0.6542,1995
0.6543,2000
0.6544,2006
0.6545,2012
0.6546,2015
0.6547,2019
0.6548,2022
0.6549,2024
0.655,2023
0.6551,2021
0.6552,2019
0.6553,2016
0.6554,2013
0.6555,2007
0.6556,2003
0.6557,2000
0.6558,1999
0.6559,1999
0.656,1998
0.6561,1999
0.6562,2000
0.6563,2005
0.6564,2012
0.6565,2017
0.6566,2022
0.6567,2023
0.6568,2027
0.6569,2028
0.657,2030
0.6571,2029
0.6572,2025
0.6573,2021
0.6574,2017
0.6575,2012
0.6576,2009
0.6577,2005
0.6578,2004
0.6579,2003
0.658,2003
0.6581,2002
0.6582,2005
0.6583,2010
0.6584,2015
0.6585,2020
0.6586,2026
0.6587,2028
0.6588,2032
0.6589,2032
0.659,2033
0.6591,2031
0.6592,2028
0.6593,2024
0.6594,2021
0.6595,2016
0.6596,2012
0.6597,2009
0.6598,2008
0.6599,2006
0.66,2008
0.6601,2008
0.6602,2010
0.6603,2016
0.6604,2022
0.6605,2027
0.6606,2030
0.6607,2034
0.6608,2038
0.6609,2040
0.661,2040
0.6611,2039
0.6612,2035
0.6613,2031
0.6614,2026
0.6615,2022
0.6616,2018
0.6617,2015
0.6618,2015
0.6619,2015
0.662,2014
0.6621,2015
0.6622,2017
0.6623,2021
0.6624,2026
0.6625,2031
0.6626,2034
0.6627,2038
0.6628,2040
0.6629,2041
0.663,2042
0.6631,2041
0.6632,2037
0.6633,2034
0.6634,2030
0.6635,2025
0.6636,2022
0.6637,2018
0.6638,2016
0.6639,2016
0.664,2014
0.6641,2015
0.6642,2018
0.6643,2022
0.6644,2027
0.6645,2031
0.6646,2035
0.6647,2039
0.6648,2041
0.6649,2043
0.665,2043
0.6651,2042
0.6652,2039
0.6653,2034
0.6654,2030
0.6655,2025
0.6656,2022
0.6657,2018
0.6658,2017
0.6659,2017
0.666,2018
0.6661,2018
0.6662,2020
0.6663,2023
0.6664,2029
0.6665,2035
0.6666,2039
0.6667,2043
0.6668,2044
0.6669,2046
0.667,2048
0.6671,2048
0.6672,2044
0.6673,2041
0.6674,2037
0.6675,2032
0.6676,2026
0.6677,2023
0.6678,2021
0.6679,2021
0.668,2021
0.6681,2020
0.6682,2022
0.6683,2027
0.6684,2032
0.6685,2037
0.6686,2041
0.6687,2044
0.6688,2047
0.6689,2050
0.669,2050
0.6691,2047
0.6692,2045
0.6693,2042
0.6694,2039
0.6695,2034
0.6696,2030
0.6697,2026
0.6698,2024
0.6699,2021
0.67,2022
0.6701,2021
0.6702,2023
0.6703,2026
0.6704,2034
0.6705,2038
0.6706,2042
0.6707,2045
0.6708,2048
0.6709,2049
0.671,2049
0.6711,2048
0.6712,2045
0.6713,2042
0.6714,2037
0.6715,2033
0.6716,2028
0.6717,2025
0.6718,2023
0.6719,2024
0.672,2023
0.6721,2021
0.6722,2024
0.6723,2028
0.6724,2033
0.6725,2037
0.6726,2041
0.6727,2043
0.6728,2047
0.6729,2048
0.673,2049
0.6731,2048
0.6732,2045
0.6733,2040
0.6734,2038
0.6735,2032
0.6736,2027
0.6737,2024
0.6738,2023
0.6739,2022
0.674,2022
0.6741,2022
0.6742,2024
0.6743,2029
0.6744,2035
0.6745,2039
0.6746,2044
0.6747,2046
0.6748,2050
0.6749,2050
0.675,2050
0.6751,2048
0.6752,2045
0.6753,2043
0.6754,2038
0.6755,2035
0.6756,2031
0.6757,2027
0.6758,2027
0.6759,2026
0.676,2026
0.6761,2026
0.6762,2028
0.6763,2032
0.6764,2037
0.6765,2043
0.6766,2046
0.6767,2049
0.6768,2053
0.6769,2052
0.677,2053
0.6771,2052
0.6772,2050
0.6773,2046
0.6774,2042
0.6775,2036
0.6776,2032
0.6777,2031
0.6778,2030
0.6779,2029
0.678,2030
0.6781,2030
0.6782,2032
0.6783,2038
0.6784,2043
0.6785,2048
0.6786,2052
0.6787,2054
0.6788,2058
0.6789,2059
0.679,2059
0.6791,2057
0.6792,2056
0.6793,2052
0.6794,2049
0.6795,2042
0.6796,2038
0.6797,2036
0.6798,2035
0.6799,2035
0.68,2034
0.6801,2033
0.6802,2036
0.6803,2038
0.6804,2044
0.6805,2051
0.6806,2054
0.6807,2057
0.6808,2061
0.6809,2060
0.681,2062
0.6811,2060
0.6812,2057
0.6813,2054
0.6814,2049
0.6815,2044
0.6816,2039
0.6817,2034
0.6818,2033
0.6819,2033
0.682,2032
0.6821,2032
0.6822,2034
0.6823,2040
0.6824,2045
0.6825,2051
0.6826,2055
0.6827,2058
0.6828,2061
0.6829,2063
0.683,2062
0.6831,2061
0.6832,2059
0.6833,2055
0.6834,2049
0.6835,2044
0.6836,2042
0.6837,2037
0.6838,2035
0.6839,2035
0.684,2034
0.6841,2034
0.6842,2037
0.6843,2042
0.6844,2046
0.6845,2052
0.6846,2056
0.6847,2058
0.6848,2062
0.6849,2063
0.685,2062
0.6851,2060
0.6852,2057
0.6853,2054
0.6854,2049
0.6855,2043
0.6856,2038
0.6857,2035
0.6858,2034
0.6859,2034
0.686,2033
0.6861,2034
0.6862,2035
0.6863,2041
0.6864,2047
0.6865,2052
0.6866,2056
0.6867,2059
0.6868,2062
0.6869,2062
0.687,2063
0.6871,2061
0.6872,2057
0.6873,2053
0.6874,2050
0.6875,2045
0.6876,2040
0.6877,2039
0.6878,2037
0.6879,2035
0.688,2037
0.6881,2036
0.6882,2038
0.6883,2043
0.6884,2049
0.6885,2054
0.6886,2057
0.6887,2060
0.6888,2063
0.6889,2065
0.689,2065
0.6891,2062
0.6892,2059
0.6893,2058
0.6894,2053
0.6895,2048
0.6896,2043
0.6897,2041
0.6898,2039
0.6899,2036
0.69,2038
0.6901,2038
0.6902,2040
0.6903,2044
0.6904,2051
0.6905,2055
0.6906,2059
0.6907,2063
0.6908,2066
0.6909,2067
0.691,2067
0.6911,2065
0.6912,2062
0.6913,2059
0.6914,2054
0.6915,2048
0.6916,2042
0.6917,2039
0.6918,2040
0.6919,2039
0.692,2039
0.6921,2039
0.6922,2042
0.6923,2048
0.6924,2051
0.6925,2057
0.6926,2060
0.6927,2063
0.6928,2065
0.6929,2066
0.693,2067
0.6931,2065
0.6932,2062
0.6933,2060
0.6934,2053
0.6935,2050
0.6936,2046
0.6937,2043
0.6938,2043
0.6939,2043
0.694,2042
0.6941,2043
0.6942,2044
0.6943,2049
0.6944,2054
0.6945,2059
0.6946,2063
0.6947,2065
0.6948,2069
0.6949,2069
0.695,2069
0.6951,2066
0.6952,2064
0.6953,2060
0.6954,2055
0.6955,2051
0.6956,2047
0.6957,2043
0.6958,2043
0.6959,2043
0.696,2042
0.6961,2042
0.6962,2044
0.6963,2048
0.6964,2055
0.6965,2060
0.6966,2065
0.6967,2067
0.6968,2069
0.6969,2070
0.697,2069
0.6971,2069
0.6972,2065
0.6973,2062
0.6974,2057
0.6975,2052
0.6976,2046
0.6977,2044
0.6978,2043
0.6979,2043
0.698,2043
0.6981,2044
0.6982,2045
0.6983,2050
0.6984,2057
0.6985,2061
0.6986,2065
0.6987,2068
0.6988,2070
0.6989,2073
0.699,2073
0.6991,2071
0.6992,2068
0.6993,2065
0.6994,2059
0.6995,2053
0.6996,2049
0.6997,2045
0.6998,2045
0.6999,2045
0.7,2045
0.7001,2044
0.7002,2048
0.7003,2052
0.7004,2058
0.7005,2063
0.7006,2065
0.7007,2067
0.7008,2070
0.7009,2071
0.701,2071
0.7011,2070
0.7012,2067
0.7013,2063
0.7014,2058
0.7015,2053
0.7016,2048
0.7017,2045
0.7018,2043
0.7019,2043
0.702,2042
0.7021,2043
0.7022,2045
0.7023,2049
0.7024,2053
0.7025,2058
0.7026,2062
0.7027,2063
0.7028,2067
0.7029,2068
0.703,2067
0.7031,2065
0.7032,2061
0.7033,2058
0.7034,2052
0.7035,2048
0.7036,2043
0.7037,2041
0.7038,2042
0.7039,2040
0.704,2041
0.7041,2041
0.7042,2044
0.7043,2050
0.7044,2054
0.7045,2059
0.7046,2062
0.7047,2065
0.7048,2069
0.7049,2071
0.705,2073
0.7051,2073
0.7052,2070
0.7053,2067
0.7054,2063
0.7055,2059
0.7056,2054
0.7057,2052
0.7058,2052
0.7059,2050
0.706,2050
0.7061,2051
0.7062,2053
0.7063,2059
0.7064,2064
0.7065,2070
0.7066,2073
0.7067,2077
0.7068,2079
0.7069,2080
0.707,2079
0.7071,2077
0.7072,2072
0.7073,2070
0.7074,2064
0.7075,2059
0.7076,2054
0.7077,2052
0.7078,2051
0.7079,2050
0.708,2048
0.7081,2048
0.7082,2049
0.7083,2054
0.7084,2058
0.7085,2062
0.7086,2064
0.7087,2066
0.7088,2068
0.7089,2069
0.709,2069
0.7091,2066
0.7092,2063
0.7093,2060
0.7094,2054
0.7095,2048
0.7096,2043
0.7097,2040
0.7098,2040
0.7099,2038
0.71,2039
0.7101,2038
0.7102,2042
0.7103,2044
0.7104,2050
0.7105,2055
0.7106,2058
0.7107,2062
0.7108,2066
0.7109,2066
0.711,2065
0.7111,2063
0.7112,2060
0.7113,2057
0.7114,2053
0.7115,2048
0.7116,2044
0.7117,2041
0.7118,2040
0.7119,2041
0.712,2040
0.7121,2039
0.7122,2042
0.7123,2048
0.7124,2053
0.7125,2057
0.7126,2059
0.7127,2062
0.7128,2065
0.7129,2066
0.713,2066
0.7131,2064
0.7132,2062
0.7133,2057
0.7134,2053
0.7135,2049
0.7136,2044
0.7137,2041
0.7138,2040
0.7139,2039
0.714,2038
0.7141,2037
0.7142,2040
0.7143,2045
0.7144,2049
0.7145,2055
0.7146,2057
0.7147,2061
0.7148,2065
0.7149,2065
0.715,2066
0.7151,2064
0.7152,2061
0.7153,2058
0.7154,2053
0.7155,2048
0.7156,2043
0.7157,2041
0.7158,2042
0.7159,2041
0.716,2041
0.7161,2042
0.7162,2044
0.7163,2048
0.7164,2054
0.7165,2056
0.7166,2060
0.7167,2062
0.7168,2065
0.7169,2066
0.717,2067
0.7171,2065
0.7172,2064
0.7173,2061
0.7174,2054
0.7175,2050
0.7176,2045
0.7177,2044
0.7178,2043
0.7179,2041
0.718,2041
0.7181,2041
0.7182,2043
0.7183,2047
0.7184,2053
0.7185,2057
0.7186,2059
0.7187,2062
0.7188,2063
0.7189,2061
0.719,2058
0.7191,2052
0.7192,2045
0.7193,2036
0.7194,2025
0.7195,2015
0.7196,2007
0.7197,2001
0.7198,1998
0.7199,1996
0.72,1995
0.7201,1996
0.7202,2002
0.7203,2011
0.7204,2018
0.7205,2026
0.7206,2033
0.7207,2039
0.7208,2042
0.7209,2046
0.721,2050
0.7211,2054
0.7212,2063
0.7213,2080
0.7214,2099
0.7215,2124
0.7216,2152
0.7217,2183
0.7218,2217
0.7219,2245
0.722,2271
0.7221,2295
0.7222,2319
0.7223,2343
0.7224,2363
0.7225,2382
0.7226,2400
0.7227,2418
0.7228,2437
0.7229,2454
0.723,2468
0.7231,2480
0.7232,2487
0.7233,2490
0.7234,2488
0.7235,2481
0.7236,2470
0.7237,2451
0.7238,2425
0.7239,2391
0.724,2351
0.7241,2308
0.7242,2268
0.7243,2230
0.7244,2195
0.7245,2164
0.7246,2139
0.7247,2123
0.7248,2111
0.7249,2102
0.725,2094
0.7251,2087
0.7252,2082
0.7253,2074
0.7254,2067
0.7255,2059
0.7256,2051
0.7257,2047
0.7258,2041
0.7259,2039
0.726,2034
0.7261,2032
0.7262,2033
0.7263,2034
0.7264,2035
0.7265,2036
0.7266,2037
0.7267,2039
0.7268,2039
0.7269,2038
0.727,2037
0.7271,2033
0.7272,2030
0.7273,2024
0.7274,2019
0.7275,2015
0.7276,2008
0.7277,2007
0.7278,2005
0.7279,2004
0.728,2001
0.7281,2000
0.7282,2001
0.7283,2004
0.7284,2009
0.7285,2012
0.7286,2015
0.7287,2019
0.7288,2022
0.7289,2023
0.729,2023
0.7291,2022
0.7292,2020
0.7293,2016
0.7294,2012
0.7295,2008
0.7296,2003
0.7297,2001
0.7298,2000
0.7299,2000
0.73,1999
0.7301,1999
0.7302,2002
0.7303,2007
0.7304,2011
0.7305,2016
0.7306,2019
0.7307,2023
0.7308,2025
0.7309,2026
0.731,2026
0.7311,2025
0.7312,2024
0.7313,2021
0.7314,2017
0.7315,2013
0.7316,2008
0.7317,2007
0.7318,2004
0.7319,2004
0.732,2003
0.7321,2001
0.7322,2004
0.7323,2008
0.7324,2014
0.7325,2019
0.7326,2023
0.7327,2026
0.7328,2029
0.7329,2032
0.733,2031
0.7331,2031
0.7332,2030
0.7333,2026
0.7334,2023
0.7335,2017
0.7336,2014
0.7337,2011
0.7338,2010
0.7339,2011
0.734,2009
0.7341,2010
0.7342,2013
0.7343,2017
0.7344,2023
0.7345,2028
0.7346,2032
0.7347,2035
0.7348,2038
0.7349,2040
0.735,2040
0.7351,2038
0.7352,2037
0.7353,2033
0.7354,2029
0.7355,2025
0.7356,2022
0.7357,2020
0.7358,2020
0.7359,2019
0.736,2020
0.7361,2020
0.7362,2023
0.7363,2027
0.7364,2034
0.7365,2038
0.7366,2042
0.7367,2045
0.7368,2049
0.7369,2050
0.737,2051
0.7371,2049
0.7372,2046
0.7373,2044
0.7374,2039
0.7375,2035
0.7376,2032
0.7377,2032
0.7378,2030
0.7379,2030
0.738,2029
0.7381,2030
0.7382,2032
0.7383,2035
0.7384,2041
0.7385,2044
0.7386,2049
0.7387,2053
0.7388,2055
0.7389,2056
0.739,2056
0.7391,2056
0.7392,2054
0.7393,2053
0.7394,2050
0.7395,2045
0.7396,2041
0.7397,2040
0.7398,2038
0.7399,2037
0.74,2036
0.7401,2038
0.7402,2040
0.7403,2044
0.7404,2049
0.7405,2053
0.7406,2057
0.7407,2061
0.7408,2065
0.7409,2067
0.741,2068
0.7411,2066
0.7412,2065
0.7413,2064
0.7414,2060
0.7415,2056
0.7416,2053
0.7417,2051
0.7418,2050
0.7419,2051
0.742,2049
0.7421,2049
0.7422,2052
0.7423,2057
0.7424,2063
0.7425,2067
0.7426,2071
0.7427,2074
0.7428,2078
0.7429,2080
0.743,2081
0.7431,2079
0.7432,2079
0.7433,2077
0.7434,2072
0.7435,2070
0.7436,2067
0.7437,2066
0.7438,2067
0.7439,2067
0.744,2066
0.7441,2066
0.7442,2069
0.7443,2074
0.7444,2079
0.7445,2083
0.7446,2087
0.7447,2093
0.7448,2096
0.7449,2098
0.745,2100
0.7451,2100
0.7452,2100
0.7453,2098
0.7454,2095
0.7455,2090
0.7456,2085
0.7457,2083
0.7458,2083
0.7459,2081
0.746,2081
0.7461,2081
0.7462,2084
0.7463,2087
0.7464,2093
0.7465,2097
0.7466,2101
0.7467,2104
0.7468,2108
0.7469,2110
0.747,2113
0.7471,2111
0.7472,2110
0.7473,2107
0.7474,2103
0.7475,2099
0.7476,2094
0.7477,2092
0.7478,2091
0.7479,2091
0.748,2089
0.7481,2091
0.7482,2092
0.7483,2096
0.7484,2099
0.7485,2103
0.7486,2107
0.7487,2110
0.7488,2111
0.7489,2113
0.749,2112
0.7491,2111
0.7492,2109
0.7493,2105
0.7494,2100
0.7495,2094
0.7496,2089
0.7497,2088
0.7498,2085
0.7499,2081
0.75,2078
0.7501,2076
0.7502,2075
0.7503,2078
0.7504,2080
0.7505,2081
0.7506,2083
0.7507,2084
0.7508,2085
0.7509,2086
0.751,2084
0.7511,2080
0.7512,2077
0.7513,2072
0.7514,2067
0.7515,2060
0.7516,2055
0.7517,2052
0.7518,2048
0.7519,2045
0.752,2043
0.7521,2041
0.7522,2041
0.7523,2042
0.7524,2043
0.7525,2044
0.7526,2048
0.7527,2048
0.7528,2050
0.7529,2049
0.753,2048
0.7531,2045
0.7532,2044
0.7533,2039
0.7534,2034
0.7535,2027
0.7536,2022
0.7537,2018
0.7538,2016
0.7539,2014
0.754,2011
0.7541,2009
0.7542,2010
0.7543,2012
0.7544,2015
0.7545,2018
0.7546,2020
0.7547,2023
0.7548,2024
0.7549,2026
0.755,2025
0.7551,2024
0.7552,2021
0.7553,2017
0.7554,2012
0.7555,2006
0.7556,2002
0.7557,1999
0.7558,1999
0.7559,1997
0.756,1995
0.7561,1994
0.7562,1995
0.7563,1999
0.7564,2002
0.7565,2007
0.7566,2010
0.7567,2013
0.7568,2017
0.7569,2017
0.757,2017
0.7571,2015
0.7572,2014
0.7573,2011
0.7574,2008
0.7575,2002
0.7576,1999
0.7577,1996
0.7578,1995
0.7579,1994
0.758,1993
0.7581,1993
0.7582,1996
0.7583,1999
0.7584,2002
0.7585,2005
0.7586,2009
0.7587,2014
0.7588,2015
0.7589,2017
0.759,2017
0.7591,2017
0.7592,2017
0.7593,2013
0.7594,2010
0.7595,2005
0.7596,2002
0.7597,2001
0.7598,1999
0.7599,1997
0.76,1996
0.7601,1996
0.7602,1999
0.7603,2002
0.7604,2007
0.7605,2010
0.7606,2015
0.7607,2018
0.7608,2021
0.7609,2022
0.761,2022
0.7611,2021
0.7612,2022
0.7613,2019
0.7614,2016
0.7615,2011
0.7616,2007
0.7617,2006
0.7618,2002
0.7619,2003
0.762,2001
0.7621,1999
0.7622,2000
0.7623,2004
0.7624,2008
0.7625,2013
0.7626,2017
0.7627,2022
0.7628,2025
0.7629,2028
0.763,2028
0.7631,2026
0.7632,2026
0.7633,2024
0.7634,2020
0.7635,2016
0.7636,2012
0.7637,2010
0.7638,2011
0.7639,2009
0.764,2007
0.7641,2006
0.7642,2009
0.7643,2011
0.7644,2017
0.7645,2021
0.7646,2025
0.7647,2030
0.7648,2034
0.7649,2035
0.765,2035
0.7651,2033
0.7652,2032
0.7653,2032
0.7654,2028
0.7655,2023
0.7656,2019
0.7657,2017
0.7658,2017
0.7659,2015
0.766,2015
0.7661,2015
0.7662,2017
0.7663,2019
0.7664,2024
0.7665,2027
0.7666,2031
0.7667,2035
0.7668,2037
0.7669,2040
0.767,2039
0.7671,2039
0.7672,2038
0.7673,2035
0.7674,2032
0.7675,2027
0.7676,2023
0.7677,2021
0.7678,2018
0.7679,2017
0.768,2015
0.7681,2015
0.7682,2018
0.7683,2021
0.7684,2024
0.7685,2028
0.7686,2032
0.7687,2036
0.7688,2040
0.7689,2040
0.769,2040
0.7691,2039
0.7692,2040
0.7693,2038
0.7694,2035
0.7695,2030
0.7696,2025
0.7697,2022
0.7698,2019
0.7699,2019
0.77,2017
0.7701,2016
0.7702,2020
0.7703,2023
0.7704,2027
0.7705,2032
0.7706,2036
0.7707,2039
0.7708,2043
0.7709,2044
0.771,2044
0.7711,2044
0.7712,2045
0.7713,2041
0.7714,2038
0.7715,2032
0.7716,2028
0.7717,2026
0.7718,2024
0.7719,2021
0.772,2020
0.7721,2019
0.7722,2021
0.7723,2025
0.7724,2029
0.7725,2033
0.7726,2038
0.7727,2042
0.7728,2044
0.7729,2046
0.773,2046
0.7731,2046
0.7732,2047
0.7733,2043
0.7734,2039
0.7735,2034
0.7736,2030
0.7737,2028
0.7738,2024
0.7739,2023
0.774,2021
0.7741,2021
0.7742,2024
0.7743,2026
0.7744,2030
0.7745,2034
0.7746,2038
0.7747,2042
0.7748,2045
0.7749,2046
0.775,2046
0.7751,2049
0.7752,2048
0.7753,2045
0.7754,2041
0.7755,2035
0.7756,2032
0.7757,2031
0.7758,2028
0.7759,2028
0.776,2025
0.7761,2024
0.7762,2027
0.7763,2029
0.7764,2033
0.7765,2040
0.7766,2042
0.7767,2045
0.7768,2048
0.7769,2049
0.777,2049
0.7771,2048
0.7772,2049
0.7773,2047
0.7774,2043
0.7775,2038
0.7776,2035
0.7777,2034
0.7778,2033
0.7779,2032
0.778,2029
0.7781,2028
0.7782,2029
0.7783,2032
0.7784,2035
0.7785,2036
0.7786,2042
0.7787,2047
0.7788,2050
0.7789,2051
0.779,2050
0.7791,2049
0.7792,2050
0.7793,2049
0.7794,2045
0.7795,2040
0.7796,2037
0.7797,2035
0.7798,2033
0.7799,2031
0.78,2028
0.7801,2027
0.7802,2029
0.7803,2032
0.7804,2036
0.7805,2039
0.7806,2043
0.7807,2048
0.7808,2051
0.7809,2053
0.781,2055
0.7811,2055
0.7812,2055
0.7813,2052
0.7814,2046
0.7815,2042
0.7816,2038
0.7817,2036
0.7818,2034
0.7819,2033
0.782,2030
0.7821,2029
0.7822,2031
0.7823,2034
0.7824,2038
0.7825,2042
0.7826,2045
0.7827,2050
0.7828,2052
0.7829,2054
0.783,2054
0.7831,2053
0.7832,2053
0.7833,2050
0.7834,2046
0.7835,2042
0.7836,2039
0.7837,2037
0.7838,2035
0.7839,2034
0.784,2032
0.7841,2031
0.7842,2034
0.7843,2036
0.7844,2039
0.7845,2042
0.7846,2046
0.7847,2050
0.7848,2053
0.7849,2055
0.785,2055
0.7851,2055
0.7852,2056
0.7853,2054
0.7854,2050
0.7855,2045
0.7856,2042
0.7857,2039
0.7858,2039
0.7859,2038
0.786,2036
0.7861,2035
0.7862,2035
0.7863,2038
0.7864,2043
0.7865,2046
0.7866,2051
0.7867,2054
0.7868,2059
0.7869,2061
0.787,2060
0.7871,2060
0.7872,2060
0.7873,2057
0.7874,2054
0.7875,2047
0.7876,2044
0.7877,2040
0.7878,2040
0.7879,2039
0.788,2037
0.7881,2037
0.7882,2038
0.7883,2040
0.7884,2044
0.7885,2048
0.7886,2052
0.7887,2057
0.7888,2059
0.7889,2061
0.789,2061
0.7891,2060
0.7892,2061
0.7893,2059
0.7894,2055
0.7895,2050
0.7896,2046
0.7897,2043
0.7898,2042
0.7899,2041
0.79,2037
0.7901,2039
0.7902,2041
0.7903,2044
0.7904,2048
0.7905,2052
0.7906,2055
0.7907,2059
0.7908,2062
0.7909,2063
0.791,2063
0.7911,2063
0.7912,2063
0.7913,2061
0.7914,2057
0.7915,2053
0.7916,2049
0.7917,2048
0.7918,2045
0.7919,2043
0.792,2041
0.7921,2041
0.7922,2041
0.7923,2045
0.7924,2048
0.7925,2052
0.7926,2057
0.7927,2061
0.7928,2063
0.7929,2064
0.793,2065
0.7931,2064
0.7932,2063
0.7933,2062
0.7934,2058
0.7935,2052
0.7936,2049
0.7937,2046
0.7938,2046
0.7939,2044
0.794,2043
0.7941,2042
0.7942,2043
0.7943,2046
0.7944,2050
0.7945,2054
0.7946,2058
0.7947,2062
0.7948,2066
0.7949,2066
0.795,2066
0.7951,2066
0.7952,2065
0.7953,2062
0.7954,2058
0.7955,2054
0.7956,2050
0.7957,2050
0.7958,2047
0.7959,2045
0.796,2043
0.7961,2042
0.7962,2043
0.7963,2044
0.7964,2048
0.7965,2050
0.7966,2055
0.7967,2060
0.7968,2061
0.7969,2063
0.797,2064
0.7971,2065
0.7972,2066
0.7973,2063
0.7974,2059
0.7975,2054
0.7976,2051
0.7977,2049
0.7978,2046
0.7979,2045
0.798,2044
0.7981,2043
0.7982,2046
0.7983,2048
0.7984,2050
0.7985,2055
0.7986,2060
0.7987,2061
0.7988,2063
0.7989,2065
0.799,2065
0.7991,2065
0.7992,2064
0.7993,2063
0.7994,2059
0.7995,2053
0.7996,2051
0.7997,2049
0.7998,2046
0.7999,2043
0.8,2040
0.8001,2039
0.8002,2041
0.8003,2043
0.8004,2047
0.8005,2051
0.8006,2057
0.8007,2061
0.8008,2064
0.8009,2066
0.801,2067
0.8011,2068
0.8012,2067
0.8013,2065
0.8014,2061
0.8015,2056
0.8016,2054
0.8017,2051
0.8018,2052
0.8019,2051
0.802,2050
0.8021,2049
0.8022,2053
0.8023,2055
0.8024,2059
0.8025,2063
0.8026,2067
0.8027,2071
0.8028,2074
0.8029,2075
0.803,2076
0.8031,2077
0.8032,2077
0.8033,2075
0.8034,2070
0.8035,2067
0.8036,2063
0.8037,2060
0.8038,2059
0.8039,2057
0.804,2056
0.8041,2056
0.8042,2057
0.8043,2060
0.8044,2063
0.8045,2067
0.8046,2071
0.8047,2074
0.8048,2076
0.8049,2076
0.805,2075
0.8051,2076
0.8052,2073
0.8053,2070
0.8054,2065
0.8055,2061
0.8056,2057
0.8057,2054
0.8058,2053
0.8059,2051
0.806,2046
0.8061,2045
0.8062,2047
0.8063,2048
0.8064,2050
0.8065,2055
0.8066,2059
0.8067,2063
0.8068,2065
0.8069,2066
0.807,2065
0.8071,2067
0.8072,2065
0.8073,2064
0.8074,2061
0.8075,2055
0.8076,2052
0.8077,2049
0.8078,2047
0.8079,2044
0.808,2043
0.8081,2043
0.8082,2044
0.8083,2047
0.8084,2051
0.8085,2055
0.8086,2060
0.8087,2064
0.8088,2067
0.8089,2066
0.809,2067
0.8091,2068
0.8092,2067
0.8093,2063
0.8094,2059
0.8095,2055
0.8096,2052
0.8097,2050
0.8098,2048
0.8099,2046
0.81,2044
0.8101,2044
0.8102,2046
0.8103,2047
0.8104,2050
0.8105,2054
0.8106,2059
0.8107,2064
0.8108,2065
0.8109,2066
0.811,2066
0.8111,2067
0.8112,2065
0.8113,2062
0.8114,2056
0.8115,2052
0.8116,2049
0.8117,2047
0.8118,2045
0.8119,2043
0.812,2040
0.8121,2040
0.8122,2040
0.8123,2044
0.8124,2047
0.8125,2050
0.8126,2054
0.8127,2058
0.8128,2062
0.8129,2063
0.813,2064
0.8131,2064
0.8132,2064
0.8133,2062
0.8134,2059
0.8135,2055
0.8136,2051
0.8137,2049
0.8138,2046
0.8139,2045
0.814,2043
0.8141,2043
0.8142,2044
0.8143,2047
0.8144,2050
0.8145,2053
0.8146,2058
0.8147,2062
0.8148,2063
0.8149,2065
0.815,2065
0.8151,2067
0.8152,2067
0.8153,2063
0.8154,2059
0.8155,2052
0.8156,2048
0.8157,2042
0.8158,2038
0.8159,2033
0.816,2028
0.8161,2025
0.8162,2022
0.8163,2021
0.8164,2020
0.8165,2020
0.8166,2023
0.8167,2025
0.8168,2028
0.8169,2032
0.817,2033
0.8171,2036
0.8172,2039
0.8173,2039
0.8174,2037
0.8175,2038
0.8176,2039
0.8177,2041
0.8178,2043
0.8179,2046
0.818,2049
0.8181,2056
0.8182,2066
0.8183,2084
0.8184,2108
0.8185,2140
0.8186,2175
0.8187,2213
0.8188,2248
0.8189,2280
0.819,2309
0.8191,2334
0.8192,2356
0.8193,2373
0.8194,2384
0.8195,2391
0.8196,2397
0.8197,2404
0.8198,2410
0.8199,2416
0.82,2421
0.8201,2427
0.8202,2426
0.8203,2427
0.8204,2422
0.8205,2412
0.8206,2398
0.8207,2380
0.8208,2355
0.8209,2325
0.821,2289
0.8211,2253
0.8212,2215
0.8213,2176
0.8214,2140
0.8215,2111
0.8216,2091
0.8217,2075
0.8218,2065
0.8219,2058
0.822,2051
0.8221,2047
0.8222,2044
0.8223,2044
0.8224,2044
0.8225,2047
0.8226,2049
0.8227,2051
0.8228,2051
0.8229,2049
0.823,2047
0.8231,2045
0.8232,2043
0.8233,2038
0.8234,2033
0.8235,2028
0.8236,2023
0.8237,2019
0.8238,2017
0.8239,2014
0.824,2011
0.8241,2010
0.8242,2009
0.8243,2012
0.8244,2015
0.8245,2019
0.8246,2023
0.8247,2025
0.8248,2028
0.8249,2028
0.825,2028
0.8251,2029
0.8252,2028
0.8253,2025
0.8254,2020
0.8255,2014
0.8256,2011
0.8257,2009
0.8258,2007
0.8259,2004
0.826,2002
0.8261,2001
0.8262,2004
0.8263,2005
0.8264,2008
0.8265,2012
0.8266,2017
0.8267,2021
0.8268,2025
0.8269,2026
0.827,2026
0.8271,2028
0.8272,2028
0.8273,2026
0.8274,2021
0.8275,2017
0.8276,2014
0.8277,2013
0.8278,2012
0.8279,2011
0.828,2008
0.8281,2008
0.8282,2009
0.8283,2011
0.8284,2014
0.8285,2018
0.8286,2022
0.8287,2028
0.8288,2029
0.8289,2030
0.829,2032
0.8291,2033
0.8292,2034
0.8293,2031
0.8294,2028
0.8295,2024
0.8296,2022
0.8297,2020
0.8298,2019
0.8299,2017
0.83,2015
0.8301,2016
0.8302,2017
0.8303,2021
0.8304,2024
0.8305,2028
0.8306,2033
0.8307,2037
0.8308,2041
0.8309,2041
0.831,2042
0.8311,2044
0.8312,2043
0.8313,2041
0.8314,2035
0.8315,2032
0.8316,2028
0.8317,2028
0.8318,2027
0.8319,2025
0.832,2024
0.8321,2024
0.8322,2026
0.8323,2029
0.8324,2033
0.8325,2037
0.8326,2042
0.8327,2046
0.8328,2049
0.8329,2049
0.833,2050
0.8331,2051
0.8332,2051
0.8333,2048
0.8334,2045
0.8335,2041
0.8336,2038
0.8337,2036
0.8338,2035
0.8339,2035
0.834,2033
0.8341,2036
0.8342,2036
0.8343,2041
0.8344,2044
0.8345,2048
0.8346,2053
0.8347,2057
0.8348,2058
0.8349,2059
0.835,2059
0.8351,2059
0.8352,2059
0.8353,2057
0.8354,2054
0.8355,2049
0.8356,2047
0.8357,2045
0.8358,2044
0.8359,2041
0.836,2040
0.8361,2040
0.8362,2043
0.8363,2045
0.8364,2049
0.8365,2053
0.8366,2060
0.8367,2063
0.8368,2065
0.8369,2067
0.837,2069
0.8371,2071
0.8372,2072
0.8373,2068
0.8374,2065
0.8375,2060
0.8376,2056
0.8377,2056
0.8378,2054
0.8379,2053
0.838,2052
0.8381,2052
0.8382,2055
0.8383,2058
0.8384,2061
0.8385,2067
0.8386,2072
0.8387,2076
0.8388,2080
0.8389,2082
0.839,2082
0.8391,2084
0.8392,2084
0.8393,2081
0.8394,2078
0.8395,2074
0.8396,2071
0.8397,2068
0.8398,2068
0.8399,2066
0.84,2067
0.8401,2068
0.8402,2071
0.8403,2074
0.8404,2078
0.8405,2083
0.8406,2088
0.8407,2093
0.8408,2096
0.8409,2096
0.841,2097
0.8411,2098
0.8412,2098
0.8413,2096
0.8414,2094
0.8415,2090
0.8416,2089
0.8417,2087
0.8418,2086
0.8419,2084
0.842,2084
0.8421,2085
0.8422,2087
0.8423,2090
0.8424,2093
0.8425,2098
0.8426,2104
0.8427,2107
0.8428,2110
0.8429,2111
0.843,2112
0.8431,2114
0.8432,2113
0.8433,2110
0.8434,2106
0.8435,2103
0.8436,2101
0.8437,2100
0.8438,2098
0.8439,2097
0.844,2095
0.8441,2096
0.8442,2098
0.8443,2100
0.8444,2103
0.8445,2107
0.8446,2111
0.8447,2115
0.8448,2117
0.8449,2116
0.845,2118
0.8451,2118
0.8452,2118
0.8453,2114
0.8454,2109
0.8455,2103
0.8456,2100
0.8457,2096
0.8458,2093
0.8459,2090
0.846,2087
0.8461,2087
0.8462,2086
0.8463,2088
0.8464,2091
0.8465,2095
0.8466,2098
0.8467,2099
0.8468,2100
0.8469,2099
0.847,2098
0.8471,2098
0.8472,2094
0.8473,2090
0.8474,2084
0.8475,2076
0.8476,2073
0.8477,2068
0.8478,2064
0.8479,2059
0.848,2055
0.8481,2055
0.8482,2054
0.8483,2054
0.8484,2055
0.8485,2058
0.8486,2061
0.8487,2061
0.8488,2060
0.8489,2057
0.849,2057
0.8491,2057
0.8492,2052
0.8493,2047
0.8494,2040
0.8495,2036
0.8496,2031
0.8497,2026
0.8498,2022
0.8499,2017
0.85,2016
0.8501,2014
0.8502,2014
0.8503,2015
0.8504,2016
0.8505,2020
0.8506,2024
0.8507,2025
0.8508,2026
0.8509,2026
0.851,2026
0.8511,2027
0.8512,2023
0.8513,2018
0.8514,2015
0.8515,2009
0.8516,2008
0.8517,2003
0.8518,2001
0.8519,2000
0.852,1997
0.8521,1996
0.8522,1994
0.8523,1996
0.8524,2001
0.8525,2003
0.8526,2007
0.8527,2010
0.8528,2013
0.8529,2013
0.853,2013
0.8531,2015
0.8532,2012
0.8533,2009
0.8534,2003
0.8535,1999
0.8536,1996
0.8537,1993
0.8538,1991
0.8539,1988
0.854,1988
0.8541,1989
0.8542,1992
0.8543,1995
0.8544,1998
0.8545,2002
0.8546,2010
0.8547,2012
0.8548,2014
0.8549,2014
0.855,2014
0.8551,2017
0.8552,2015
0.8553,2012
0.8554,2007
0.8555,2002
0.8556,1999
0.8557,1996
0.8558,1995
0.8559,1993
0.856,1992
0.8561,1995
0.8562,1996
0.8563,1999
0.8564,2003
0.8565,2008
0.8566,2013
0.8567,2016
0.8568,2018
0.8569,2019
0.857,2019
0.8571,2019
0.8572,2020
0.8573,2017
0.8574,2013
0.8575,2009
0.8576,2007
0.8577,2004
0.8578,2003
0.8579,2001
0.858,2002
0.8581,2003
0.8582,2004
0.8583,2007
0.8584,2009
0.8585,2015
0.8586,2020
0.8587,2022
0.8588,2024
0.8589,2025
0.859,2026
0.8591,2028
0.8592,2027
0.8593,2024
0.8594,2020
0.8595,2016
0.8596,2014
0.8597,2012
0.8598,2010
0.8599,2008
0.86,2007
0.8601,2009
0.8602,2009
0.8603,2012
0.8604,2018
0.8605,2020
0.8606,2025
0.8607,2030
0.8608,2032
0.8609,2032
0.861,2031
0.8611,2031
0.8612,2032
0.8613,2030
0.8614,2025
0.8615,2020
0.8616,2017
0.8617,2015
0.8618,2013
0.8619,2011
0.862,2010
0.8621,2012
0.8622,2013
0.8623,2017
0.8624,2020
0.8625,2024
0.8626,2030
0.8627,2033
0.8628,2035
0.8629,2036
0.863,2035
0.8631,2036
0.8632,2035
0.8633,2031
0.8634,2027
0.8635,2022
0.8636,2021
0.8637,2018
0.8638,2017
0.8639,2014
0.864,2013
0.8641,2015
0.8642,2016
0.8643,2019
0.8644,2023
0.8645,2028
0.8646,2032
0.8647,2037
0.8648,2038
0.8649,2038
0.865,2038
0.8651,2040
0.8652,2039
0.8653,2036
0.8654,2031
0.8655,2027
0.8656,2024
0.8657,2022
0.8658,2019
0.8659,2017
0.866,2016
0.8661,2017
0.8662,2019
0.8663,2021
0.8664,2024
0.8665,2029
0.8666,2034
0.8667,2039
0.8668,2040
0.8669,2040
0.867,2039
0.8671,2040
0.8672,2038
0.8673,2036
0.8674,2031
0.8675,2027
0.8676,2025
0.8677,2022
0.8678,2022
0.8679,2020
0.868,2018
0.8681,2020
0.8682,2021
0.8683,2025
0.8684,2028
0.8685,2032
0.8686,2037
0.8687,2039
0.8688,2041
0.8689,2042
0.869,2042
0.8691,2043
0.8692,2040
0.8693,2038
0.8694,2032
0.8695,2028
0.8696,2024
0.8697,2024
0.8698,2023
0.8699,2021
0.87,2021
0.8701,2022
0.8702,2024
0.8703,2027
0.8704,2030
0.8705,2035
0.8706,2041
0.8707,2042
0.8708,2044
0.8709,2045
0.871,2045
0.8711,2046
0.8712,2044
0.8713,2041
0.8714,2036
0.8715,2032
0.8716,2028
0.8717,2027
0.8718,2025
0.8719,2024
0.872,2023
0.8721,2024
0.8722,2024
0.8723,2027
0.8724,2030
0.8725,2035
0.8726,2037
0.8727,2042
0.8728,2044
0.8729,2043
0.873,2044
0.8731,2045
0.8732,2043
0.8733,2039
0.8734,2035
0.8735,2031
0.8736,2030
0.8737,2027
0.8738,2026
0.8739,2024
0.874,2024
0.8741,2026
0.8742,2026
0.8743,2030
0.8744,2033
0.8745,2037
0.8746,2041
0.8747,2045
0.8748,2047
0.8749,2046
0.875,2047
0.8751,2048
0.8752,2046
0.8753,2042
0.8754,2039
0.8755,2034
0.8756,2032
0.8757,2029
0.8758,2026
0.8759,2025
0.876,2023
0.8761,2023
0.8762,2027
0.8763,2030
0.8764,2034
0.8765,2038
0.8766,2044
0.8767,2046
0.8768,2048
0.8769,2048
0.877,2048
0.8771,2047
0.8772,2046
0.8773,2043
0.8774,2038
0.8775,2034
0.8776,2032
0.8777,2029
0.8778,2026
0.8779,2024
0.878,2024
0.8781,2024
0.8782,2026
0.8783,2029
0.8784,2033
0.8785,2038
0.8786,2041
0.8787,2046
0.8788,2047
0.8789,2049
0.879,2049
0.8791,2051
0.8792,2049
0.8793,2045
0.8794,2040
0.8795,2036
0.8796,2035
0.8797,2033
0.8798,2031
0.8799,2029
0.88,2027
0.8801,2029
0.8802,2030
0.8803,2033
0.8804,2036
0.8805,2041
0.8806,2047
0.8807,2049
0.8808,2051
0.8809,2051
0.881,2052
0.8811,2053
0.8812,2050
0.8813,2046
0.8814,2042
0.8815,2039
0.8816,2037
0.8817,2035
0.8818,2033
0.8819,2031
0.882,2031
0.8821,2032
0.8822,2034
0.8823,2036
0.8824,2040
0.8825,2043
0.8826,2048
0.8827,2050
0.8828,2052
0.8829,2053
0.883,2053
0.8831,2054
0.8832,2053
0.8833,2048
0.8834,2043
0.8835,2040
0.8836,2036
0.8837,2035
0.8838,2033
0.8839,2032
0.884,2031
0.8841,2030
0.8842,2033
0.8843,2036
0.8844,2038
0.8845,2043
0.8846,2049
0.8847,2052
0.8848,2055
0.8849,2056
0.885,2056
0.8851,2057
0.8852,2054
0.8853,2050
0.8854,2045
0.8855,2041
0.8856,2039
0.8857,2036
0.8858,2034
0.8859,2032
0.886,2032
0.8861,2033
0.8862,2034
0.8863,2038
0.8864,2042
0.8865,2048
0.8866,2053
0.8867,2056
0.8868,2057
0.8869,2058
0.887,2058
0.8871,2058
0.8872,2055
0.8873,2051
0.8874,2045
0.8875,2042
0.8876,2040
0.8877,2036
0.8878,2036
0.8879,2035
0.888,2035
0.8881,2036
0.8882,2038
0.8883,2041
0.8884,2044
0.8885,2049
0.8886,2054
0.8887,2056
0.8888,2058
0.8889,2058
0.889,2060
0.8891,2060
0.8892,2058
0.8893,2055
0.8894,2050
0.8895,2046
0.8896,2042
0.8897,2040
0.8898,2038
0.8899,2035
0.89,2035
0.8901,2036
0.8902,2036
0.8903,2041
0.8904,2045
0.8905,2051
0.8906,2055
0.8907,2059
0.8908,2060
0.8909,2061
0.891,2061
0.8911,2061
0.8912,2059
0.8913,2055
0.8914,2050
0.8915,2046
0.8916,2043
0.8917,2042
0.8918,2040
0.8919,2038
0.892,2038
0.8921,2039
0.8922,2042
0.8923,2045
0.8924,2049
0.8925,2053
0.8926,2057
0.8927,2060
0.8928,2062
0.8929,2061
0.893,2062
0.8931,2061
0.8932,2060
0.8933,2055
0.8934,2050
0.8935,2046
0.8936,2044
0.8937,2042
0.8938,2040
0.8939,2039
0.894,2039
0.8941,2041
0.8942,2043
0.8943,2046
0.8944,2050
0.8945,2055
0.8946,2059
0.8947,2061
0.8948,2062
0.8949,2061
0.895,2062
0.8951,2062
0.8952,2060
0.8953,2056
0.8954,2051
0.8955,2048
0.8956,2045
0.8957,2043
0.8958,2042
0.8959,2040
0.896,2038
0.8961,2039
0.8962,2040
0.8963,2044
0.8964,2049
0.8965,2054
0.8966,2059
0.8967,2063
0.8968,2064
0.8969,2063
0.897,2066
0.8971,2065
0.8972,2064
0.8973,2061
0.8974,2057
0.8975,2053
0.8976,2052
0.8977,2049
0.8978,2048
0.8979,2048
0.898,2049
0.8981,2052
0.8982,2054
0.8983,2058
0.8984,2061
0.8985,2066
0.8986,2070
0.8987,2072
0.8988,2074
0.8989,2074
0.899,2075
0.8991,2075
0.8992,2071
0.8993,2068
0.8994,2063
0.8995,2060
0.8996,2056
0.8997,2054
0.8998,2052
0.8999,2051
0.9,2052
0.9001,2053
0.9002,2055
0.9003,2056
0.9004,2062
0.9005,2067
0.9006,2071
0.9007,2073
0.9008,2074
0.9009,2074
0.901,2074
0.9011,2073
0.9012,2071
0.9013,2065
0.9014,2061
0.9015,2058
0.9016,2055
0.9017,2052
0.9018,2049
0.9019,2047
0.902,2048
0.9021,2048
0.9022,2050
0.9023,2052
0.9024,2055
0.9025,2060
0.9026,2062
0.9027,2064
0.9028,2064
0.9029,2066
0.903,2066
0.9031,2067
0.9032,2064
0.9033,2060
0.9034,2056
0.9035,2052
0.9036,2050
0.9037,2048
0.9038,2046
0.9039,2046
0.904,2047
0.9041,2045
0.9042,2048
0.9043,2051
0.9044,2055
0.9045,2060
0.9046,2063
0.9047,2066
0.9048,2067
0.9049,2068
0.905,2068
0.9051,2067
0.9052,2066
0.9053,2063
0.9054,2059
0.9055,2054
0.9056,2052
0.9057,2049
0.9058,2046
0.9059,2046
0.906,2045
0.9061,2047
0.9062,2049
0.9063,2051
0.9064,2055
0.9065,2060
0.9066,2065
0.9067,2067
0.9068,2068
0.9069,2067
0.907,2068
0.9071,2069
0.9072,2067
0.9073,2063
0.9074,2057
0.9075,2053
0.9076,2050
0.9077,2048
0.9078,2045
0.9079,2043
0.908,2044
0.9081,2044
0.9082,2048
0.9083,2051
0.9084,2055
0.9085,2059
0.9086,2065
0.9087,2066
0.9088,2068
0.9089,2068
0.909,2069
0.9091,2068
0.9092,2065
0.9093,2059
0.9094,2055
0.9095,2052
0.9096,2048
0.9097,2047
0.9098,2046
0.9099,2044
0.91,2044
0.9101,2045
0.9102,2046
0.9103,2049
0.9104,2053
0.9105,2057
0.9106,2062
0.9107,2064
0.9108,2063
0.9109,2064
0.911,2064
0.9111,2063
0.9112,2059
0.9113,2053
0.9114,2047
0.9115,2040
0.9116,2034
0.9117,2028
0.9118,2021
0.9119,2015
0.912,2009
0.9121,2005
0.9122,2003
0.9123,2004
0.9124,2005
0.9125,2010
0.9126,2016
0.9127,2020
0.9128,2025
0.9129,2028
0.913,2032
0.9131,2035
0.9132,2034
0.9133,2032
0.9134,2028
0.9135,2028
0.9136,2032
0.9137,2039
0.9138,2054
0.9139,2076
0.914,2105
0.9141,2140
0.9142,2175
0.9143,2210
0.9144,2242
0.9145,2272
0.9146,2299
0.9147,2322
0.9148,2340
0.9149,2356
0.915,2371
0.9151,2384
0.9152,2397
0.9153,2408
0.9154,2419
0.9155,2431
0.9156,2443
0.9157,2453
0.9158,2460
0.9159,2463
0.916,2466
0.9161,2463
0.9162,2453
0.9163,2435
0.9164,2408
0.9165,2378
0.9166,2341
0.9167,2304
0.9168,2263
0.9169,2223
0.917,2185
0.9171,2150
0.9172,2123
0.9173,2100
0.9174,2084
0.9175,2072
0.9176,2063
0.9177,2058
0.9178,2051
0.9179,2048
0.918,2046
0.9181,2044
0.9182,2044
0.9183,2045
0.9184,2045
0.9185,2049
0.9186,2052
0.9187,2052
0.9188,2050
0.9189,2050
0.919,2048
0.9191,2045
0.9192,2041
0.9193,2036
0.9194,2029
0.9195,2024
0.9196,2022
0.9197,2018
0.9198,2015
0.9199,2012
0.92,2009
0.9201,2009
0.9202,2010
0.9203,2010
0.9204,2015
0.9205,2020
0.9206,2024
0.9207,2027
0.9208,2028
0.9209,2028
0.921,2028
0.9211,2029
0.9212,2025
0.9213,2020
0.9214,2014
0.9215,2012
0.9216,2008
0.9217,2007
0.9218,2005
0.9219,2004
0.922,2004
0.9221,2006
0.9222,2008
0.9223,2010
0.9224,2014
0.9225,2019
0.9226,2023
0.9227,2025
0.9228,2027
0.9229,2025
0.923,2027
0.9231,2027
0.9232,2025
0.9233,2021
0.9234,2016
0.9235,2014
0.9236,2011
0.9237,2009
0.9238,2006
0.9239,2005
0.924,2007
0.9241,2006
0.9242,2010
0.9243,2012
0.9244,2017
0.9245,2024
0.9246,2028
0.9247,2031
0.9248,2033
0.9249,2033
0.925,2034
0.9251,2034
0.9252,2031
0.9253,2026
0.9254,2022
0.9255,2019
0.9256,2016
0.9257,2014
0.9258,2013
0.9259,2012
0.926,2012
0.9261,2015
0.9262,2018
0.9263,2021
0.9264,2026
0.9265,2032
0.9266,2036
0.9267,2039
0.9268,2039
0.9269,2041
0.927,2043
0.9271,2041
0.9272,2039
0.9273,2035
0.9274,2031
0.9275,2028
0.9276,2027
0.9277,2024
0.9278,2022
0.9279,2021
0.928,2021
0.9281,2022
0.9282,2026
0.9283,2029
0.9284,2034
0.9285,2040
0.9286,2044
0.9287,2046
0.9288,2048
0.9289,2049
0.929,2051
0.9291,2049
0.9292,2048
0.9293,2043
0.9294,2039
0.9295,2037
0.9296,2033
0.9297,2032
0.9298,2030
0.9299,2029
0.93,2029
0.9301,2031
0.9302,2033
0.9303,2036
0.9304,2040
0.9305,2048
0.9306,2051
0.9307,2053
0.9308,2055
0.9309,2056
0.931,2058
0.9311,2055
0.9312,2053
0.9313,2049
0.9314,2045
0.9315,2042
0.9316,2039
0.9317,2038
0.9318,2035
0.9319,2035
0.932,2036
0.9321,2038
0.9322,2041
0.9323,2043
0.9324,2049
0.9325,2054
0.9326,2059
0.9327,2062
0.9328,2063
0.9329,2064
0.933,2066
0.9331,2064
0.9332,2062
0.9333,2058
0.9334,2053
0.9335,2052
0.9336,2050
0.9337,2047
0.9338,2045
0.9339,2044
0.934,2045
0.9341,2048
0.9342,2052
0.9343,2056
0.9344,2060
0.9345,2066
0.9346,2070
0.9347,2074
0.9348,2076
0.9349,2076
0.935,2078
0.9351,2077
0.9352,2075
0.9353,2071
0.9354,2067
0.9355,2065
0.9356,2063
0.9357,2062
0.9358,2061
0.9359,2060
0.936,2063
0.9361,2063
0.9362,2066
0.9363,2070
0.9364,2075
0.9365,2082
0.9366,2086
0.9367,2089
0.9368,2091
0.9369,2091
0.937,2094
0.9371,2094
0.9372,2091
0.9373,2088
0.9374,2085
0.9375,2083
0.9376,2080
0.9377,2078
0.9378,2076
0.9379,2075
0.938,2076
0.9381,2078
0.9382,2081
0.9383,2084
0.9384,2089
0.9385,2094
0.9386,2100
0.9387,2103
0.9388,2104
0.9389,2105
0.939,2107
0.9391,2107
0.9392,2105
0.9393,2100
0.9394,2096
0.9395,2094
0.9396,2091
0.9397,2089
0.9398,2087
0.9399,2086
0.94,2086
0.9401,2089
0.9402,2092
0.9403,2097
0.9404,2100
0.9405,2106
0.9406,2110
0.9407,2112
0.9408,2111
0.9409,2111
0.941,2113
0.9411,2112
0.9412,2110
0.9413,2105
0.9414,2099
0.9415,2095
0.9416,2092
0.9417,2090
0.9418,2087
0.9419,2085
0.942,2085
0.9421,2085
0.9422,2086
0.9423,2087
0.9424,2089
0.9425,2093
0.9426,2095
0.9427,2096
0.9428,2095
0.9429,2094
0.943,2094
0.9431,2092
0.9432,2087
0.9433,2081
0.9434,2074
0.9435,2069
0.9436,2066
0.9437,2061
0.9438,2057
0.9439,2054
0.944,2052
0.9441,2051
0.9442,2052
0.9443,2055
0.9444,2056
0.9445,2059
0.9446,2063
0.9447,2064
0.9448,2063
0.9449,2061
0.945,2059
0.9451,2058
0.9452,2053
0.9453,2047
0.9454,2039
0.9455,2035
0.9456,2030
0.9457,2026
0.9458,2022
0.9459,2018
0.946,2017
0.9461,2018
0.9462,2020
0.9463,2022
0.9464,2026
0.9465,2028
0.9466,2032
0.9467,2033
0.9468,2031
0.9469,2032
0.947,2031
0.9471,2030
0.9472,2026
0.9473,2020
0.9474,2014
0.9475,2010
0.9476,2008
0.9477,2006
0.9478,2003
0.9479,2001
0.948,2001
0.9481,2001
0.9482,2005
0.9483,2008
0.9484,2013
0.9485,2016
0.9486,2020
0.9487,2021
0.9488,2020
0.9489,2019
0.949,2021
0.9491,2019
0.9492,2017
0.9493,2012
0.9494,2008
0.9495,2003
0.9496,2001
0.9497,1998
0.9498,1996
0.9499,1995
0.95,1995
0.9501,1997
0.9502,2000
0.9503,2004
0.9504,2009
0.9505,2015
0.9506,2018
0.9507,2020
0.9508,2020
0.9509,2022
0.951,2024
0.9511,2023
0.9512,2020
0.9513,2016
0.9514,2011
0.9515,2009
0.9516,2006
0.9517,2004
0.9518,2003
0.9519,2001
0.952,2000
0.9521,2004
0.9522,2007
0.9523,2010
0.9524,2015
0.9525,2020
0.9526,2024
0.9527,2026
0.9528,2027
0.9529,2027
0.953,2029
0.9531,2026
0.9532,2024
0.9533,2018
0.9534,2014
0.9535,2011
0.9536,2009
0.9537,2008
0.9538,2005
0.9539,2004
0.954,2004
0.9541,2005
0.9542,2008
0.9543,2012
0.9544,2017
0.9545,2024
0.9546,2028
0.9547,2032
0.9548,2034
0.9549,2034
0.955,2036
0.9551,2035
0.9552,2032
0.9553,2026
0.9554,2022
0.9555,2019
0.9556,2015
0.9557,2013
0.9558,2011
0.9559,2011
0.956,2012
0.9561,2013
0.9562,2017
0.9563,2020
0.9564,2023
0.9565,2030
0.9566,2034
0.9567,2037
0.9568,2038
0.9569,2037
0.957,2039
0.9571,2038
0.9572,2035
0.9573,2030
0.9574,2025
0.9575,2022
0.9576,2018
0.9577,2016
0.9578,2016
0.9579,2015
0.958,2014
0.9581,2017
0.9582,2019
0.9583,2022
0.9584,2027
0.9585,2032
0.9586,2037
0.9587,2040
0.9588,2041
0.9589,2041
0.959,2041
0.9591,2042
0.9592,2039
0.9593,2032
0.9594,2028
0.9595,2026
0.9596,2021
0.9597,2020
0.9598,2018
0.9599,2016
0.96,2018
0.9601,2019
0.9602,2021
0.9603,2024
0.9604,2031
0.9605,2037
0.9606,2041
0.9607,2044
0.9608,2045
0.9609,2044
0.961,2044
0.9611,2043
0.9612,2039
0.9613,2034
0.9614,2029
0.9615,2027
0.9616,2023
0.9617,2022
0.9618,2019
0.9619,2018
0.962,2020
0.9621,2021
0.9622,2024
0.9623,2028
0.9624,2032
0.9625,2038
0.9626,2043
0.9627,2045
0.9628,2045
0.9629,2046
0.963,2046
0.9631,2044
0.9632,2041
0.9633,2037
0.9634,2033
0.9635,2029
0.9636,2027
0.9637,2025
0.9638,2022
0.9639,2020
0.964,2019
0.9641,2023
0.9642,2025
0.9643,2029
0.9644,2035
0.9645,2040
0.9646,2043
0.9647,2045
0.9648,2046
0.9649,2046
0.965,2046
0.9651,2047
0.9652,2043
0.9653,2037
0.9654,2033
0.9655,2029
0.9656,2027
0.9657,2025
0.9658,2022
0.9659,2021
0.966,2022
0.9661,2021
0.9662,2024
0.9663,2028
0.9664,2033
0.9665,2040
0.9666,2043
0.9667,2045
0.9668,2047
0.9669,2048
0.967,2050
0.9671,2046
0.9672,2043
0.9673,2038
0.9674,2034
0.9675,2031
0.9676,2027
0.9677,2025
0.9678,2022
0.9679,2021
0.968,2023
0.9681,2023
0.9682,2025
0.9683,2028
0.9684,2033
0.9685,2040
0.9686,2043
0.9687,2046
0.9688,2046
0.9689,2049
0.969,2049
0.9691,2047
0.9692,2044
0.9693,2040
0.9694,2036
0.9695,2031
0.9696,2029
0.9697,2026
0.9698,2024
0.9699,2022
0.97,2023
0.9701,2025
0.9702,2027
0.9703,2030
0.9704,2036
0.9705,2041
0.9706,2043
0.9707,2045
0.9708,2048
0.9709,2049
0.971,2049
0.9711,2049
0.9712,2045
0.9713,2041
0.9714,2036
0.9715,2033
0.9716,2030
0.9717,2028
0.9718,2025
0.9719,2025
0.972,2025
0.9721,2027
0.9722,2030
0.9723,2034
0.9724,2038
0.9725,2042
0.9726,2046
0.9727,2048
0.9728,2050
0.9729,2052
0.973,2052
0.9731,2051
0.9732,2047
0.9733,2042
0.9734,2037
0.9735,2033
0.9736,2031
0.9737,2029
0.9738,2027
0.9739,2026
0.974,2026
0.9741,2027
0.9742,2030
0.9743,2034
0.9744,2040
0.9745,2044
0.9746,2048
0.9747,2050
0.9748,2050
0.9749,2052
0.975,2051
0.9751,2052
0.9752,2049
0.9753,2043
0.9754,2040
0.9755,2035
0.9756,2034
0.9757,2031
0.9758,2030
0.9759,2029
0.976,2031
0.9761,2031
0.9762,2034
0.9763,2038
0.9764,2044
0.9765,2049
0.9766,2053
0.9767,2056
0.9768,2056
0.9769,2058
0.977,2059
0.9771,2057
0.9772,2053
0.9773,2049
0.9774,2045
0.9775,2040
0.9776,2037
0.9777,2035
0.9778,2033
0.9779,2033
0.978,2033
0.9781,2035
0.9782,2039
0.9783,2041
0.9784,2047
0.9785,2051
0.9786,2053
0.9787,2056
0.9788,2058
0.9789,2058
0.979,2058
0.9791,2058
0.9792,2055
0.9793,2049
0.9794,2046
0.9795,2043
0.9796,2040
0.9797,2036
0.9798,2036
0.9799,2035
0.98,2035
0.9801,2036
0.9802,2039
0.9803,2042
0.9804,2049
0.9805,2054
0.9806,2058
0.9807,2059
0.9808,2060
0.9809,2062
0.981,2062
0.9811,2061
0.9812,2057
0.9813,2054
0.9814,2050
0.9815,2046
0.9816,2043
0.9817,2039
0.9818,2038
0.9819,2038
0.982,2040
0.9821,2040
0.9822,2042
0.9823,2046
0.9824,2051
0.9825,2057
0.9826,2061
0.9827,2063
0.9828,2064
0.9829,2067
0.983,2067
0.9831,2065
0.9832,2061
0.9833,2057
0.9834,2053
0.9835,2049
0.9836,2046
0.9837,2042
0.9838,2041
0.9839,2040
0.984,2041
0.9841,2041
0.9842,2045
0.9843,2048
0.9844,2053
0.9845,2058
0.9846,2062
0.9847,2065
0.9848,2066
0.9849,2066
0.985,2066
0.9851,2065
0.9852,2063
0.9853,2058
0.9854,2054
0.9855,2049
0.9856,2046
0.9857,2043
0.9858,2041
0.9859,2039
0.986,2040
0.9861,2041
0.9862,2042
0.9863,2046
0.9864,2051
0.9865,2057
0.9866,2060
0.9867,2063
0.9868,2064
0.9869,2066
0.987,2067
0.9871,2067
0.9872,2063
0.9873,2058
0.9874,2054
0.9875,2050
0.9876,2047
0.9877,2044
0.9878,2042
0.9879,2040
0.988,2041
0.9881,2041
0.9882,2043
0.9883,2046
0.9884,2051
0.9885,2057
0.9886,2062
0.9887,2065
0.9888,2066
0.9889,2067
0.989,2068
0.9891,2067
0.9892,2063
0.9893,2059
0.9894,2055
0.9895,2050
0.9896,2047
0.9897,2044
0.9898,2042
0.9899,2041
0.99,2041
0.9901,2043
0.9902,2046
0.9903,2050
0.9904,2056
0.9905,2060
0.9906,2064
0.9907,2066
0.9908,2068
0.9909,2069
0.991,2071
0.9911,2068
0.9912,2064
0.9913,2060
0.9914,2055
0.9915,2054
0.9916,2049
0.9917,2046
0.9918,2045
0.9919,2046
0.992,2044
0.9921,2047
0.9922,2049
0.9923,2051
0.9924,2056
0.9925,2060
0.9926,2065
0.9927,2067
0.9928,2069
0.9929,2070
0.993,2072
0.9931,2071
0.9932,2066
0.9933,2062
0.9934,2058
0.9935,2054
0.9936,2051
0.9937,2046
0.9938,2044
0.9939,2044
0.994,2043
0.9941,2045
0.9942,2048
0.9943,2050
0.9944,2054
0.9945,2060
0.9946,2063
0.9947,2063
0.9948,2066
0.9949,2067
0.995,2068
0.9951,2066
0.9952,2061
0.9953,2057
0.9954,2054
0.9955,2048
0.9956,2044
0.9957,2042
0.9958,2040
0.9959,2040
0.996,2041
0.9961,2041
0.9962,2044
0.9963,2047
0.9964,2053
0.9965,2059
0.9966,2063
0.9967,2066
0.9968,2068
0.9969,2070
0.997,2071
0.9971,2070
0.9972,2068
0.9973,2064
0.9974,2061
0.9975,2058
0.9976,2055
0.9977,2053
0.9978,2052
0.9979,2050
0.998,2052
0.9981,2052
0.9982,2053
0.9983,2057
0.9984,2062
0.9985,2068
0.9986,2072
0.9987,2073
0.9988,2075
0.9989,2078
0.999,2077
0.9991,2076
0.9992,2072
0.9993,2067
0.9994,2063
0.9995,2058
0.9996,2055
0.9997,2052
0.9998,2050
0.9999,2051
1,2051
1.0001,2051
1.0002,2052
1.0003,2057
1.0004,2062
1.0005,2067
1.0006,2071
1.0007,2073
1.0008,2073
1.0009,2075
1.001,2075
1.0011,2072
1.0012,2068
1.0013,2063
1.0014,2059
1.0015,2055
1.0016,2051
1.0017,2047
1.0018,2044
1.0019,2044
1.002,2042
1.0021,2045
1.0022,2047
1.0023,2051
1.0024,2056
1.0025,2061
1.0026,2065
1.0027,2065
1.0028,2067
1.0029,2068
1.003,2069
1.0031,2068
1.0032,2063
1.0033,2058
1.0034,2056
1.0035,2053
1.0036,2050
1.0037,2048
1.0038,2046
1.0039,2045
1.004,2046
1.0041,2047
1.0042,2048
1.0043,2054
1.0044,2059
1.0045,2066
1.0046,2068
1.0047,2070
1.0048,2071
1.0049,2072
1.005,2074
1.0051,2073
1.0052,2070
1.0053,2065
1.0054,2062
1.0055,2058
1.0056,2054
1.0057,2050
1.0058,2048
1.0059,2048
1.006,2046
1.0061,2049
1.0062,2049
1.0063,2053
1.0064,2059
1.0065,2065
1.0066,2068
1.0067,2070
1.0068,2071
1.0069,2073
1.007,2072
1.0071,2071
1.0072,2066
1.0073,2062
1.0074,2059
1.0075,2054
1.0076,2051
1.0077,2048
1.0078,2045
1.0079,2044
1.008,2042
1.0081,2044
1.0082,2048
1.0083,2051
1.0084,2057
1.0085,2061
1.0086,2065
1.0087,2067
1.0088,2069
1.0089,2071
1.009,2071
1.0091,2068
